# Matter power spectrum P(k) at redshift z=4.5
# for k=1.04575e-05 to 1006.15 h/Mpc,
# number of wavenumbers equal to 625
#    1:k (h/Mpc)              2:P (Mpc/h)^3        
       1.045749810485e-05       2.360520304346e+00 
       2.373043761528e-05       5.285027554983e+00 
       3.705205197341e-05       8.187095841575e+00 
       5.046040160262e-05       1.108635506537e+01 
       6.399420676399e-05       1.399618709460e+01 
       7.769321405898e-05       1.692789482265e+01 
       9.159857522556e-05       1.989195361052e+01 
       1.057532435558e-04       2.289856586533e+01 
       1.202023933008e-04       2.595797573171e+01 
       1.349938674647e-04       2.908068379762e+01 
       1.501786593808e-04       3.227761593874e+01 
       1.658114333596e-04       3.556027135830e+01 
       1.819510894196e-04       3.894086141114e+01 
       1.986613765579e-04       4.243244694253e+01 
       2.160115580438e-04       4.604907726162e+01 
       2.340771306401e-04       4.980593284889e+01 
       2.529405972213e-04       5.371947234925e+01 
       2.726922886571e-04       5.780758362928e+01 
       2.934312256600e-04       6.208973564946e+01 
       3.152660040981e-04       6.658712786202e+01 
       3.383156775180e-04       7.132283052757e+01 
       3.627105977775e-04       7.632190662618e+01 
       3.885931583209e-04       8.161150245297e+01 
       4.161183645581e-04       8.722089052411e+01 
       4.454541324261e-04       9.318144215785e+01 
       4.767811907995e-04       9.952650464531e+01 
       5.102924387431e-04       1.062911500069e+02 
       5.461915893473e-04       1.135117633539e+02 
       5.846909251320e-04       1.212254363667e+02 
       6.260080050474e-04       1.294691394185e+02 
       6.703612104985e-04       1.382786554287e+02 
       7.179641068864e-04       1.476872845590e+02 
       7.690187318622e-04       1.577243565203e+02 
       8.237080952403e-04       1.684136303273e+02 
       8.821883665213e-04       1.797716960463e+02 
       9.445813962622e-04       1.918065288542e+02 
       1.010968318642e-03       2.045163656974e+02 
       1.081384969221e-03       2.178890507819e+02 
       1.155819700313e-03       2.319019625368e+02 
       1.234213899658e-03       2.465225619455e+02 
       1.316465168833e-03       2.617095124279e+02 
       1.402432774394e-03       2.774142552817e+02 
       1.491944724558e-03       2.935828741758e+02 
       1.584805697329e-03       3.101580426846e+02 
       1.680805061300e-03       3.270808868832e+02 
       1.779724358910e-03       3.442926472142e+02 
       1.881343813733e-03       3.617360335328e+02 
       1.985447627100e-03       3.793562517889e+02 
       2.091828006459e-03       3.971017355676e+02 
       2.200287998256e-03       4.149245883836e+02 
       2.310643277916e-03       4.327802498246e+02 
       2.422723085604e-03       4.506291837388e+02 
       2.536370500476e-03       4.684353801752e+02 
       2.651442230081e-03       4.861665523691e+02 
       2.767808065318e-03       5.037939416576e+02 
       2.885350122018e-03       5.212922870626e+02 
       3.003961962113e-03       5.386393344875e+02 
       3.123547662764e-03       5.558157632933e+02 
       3.244020881646e-03       5.728048253017e+02 
       3.365303950641e-03       5.895920970288e+02 
       3.487327018288e-03       6.061652384237e+02 
       3.610027252458e-03       6.225137387269e+02 
       3.733348108622e-03       6.386288181134e+02 
       3.857238664757e-03       6.545030191835e+02 
       3.981653021215e-03       6.701301951157e+02 
       4.106549762154e-03       6.855054434762e+02 
       4.231891474164e-03       7.006246716273e+02 
       4.357644317282e-03       7.154849853480e+02 
       4.483777643502e-03       7.300839898641e+02 
       4.610263657980e-03       7.444203304976e+02 
       4.737077118433e-03       7.584929955249e+02 
       4.864195068510e-03       7.723017205517e+02 
       4.991596601329e-03       7.858467831166e+02 
       5.119262649698e-03       7.991286088881e+02 
       5.247175799933e-03       8.121483769027e+02 
       5.375320126495e-03       8.249071549470e+02 
       5.503681045008e-03       8.374065576035e+02 
       5.632245181484e-03       8.496485829629e+02 
       5.761000255846e-03       8.616350507218e+02 
       5.889934978076e-03       8.733681814241e+02 
       6.019038955502e-03       8.848503149057e+02 
       6.148302609931e-03       8.960838348642e+02 
       6.277717103485e-03       9.070714590748e+02 
       6.407274272154e-03       9.178160415741e+02 
       6.536966566162e-03       9.283199343203e+02 
       6.666786996400e-03       9.385862214293e+02 
       6.796729086234e-03       9.486175993283e+02 
       6.926786828089e-03       9.584170378434e+02 
       7.056954644300e-03       9.679876931550e+02 
       7.187227351743e-03       9.773325511036e+02 
       7.317600129859e-03       9.864541943985e+02 
       7.448068491705e-03       9.953556783371e+02 
       7.578628257697e-03       1.004040159426e+03 
       7.709275531791e-03       1.012510183355e+03 
       7.840006679834e-03       1.020769439017e+03 
       7.970818309857e-03       1.028820567916e+03 
       8.101707254141e-03       1.036666099902e+03 
       8.232670552846e-03       1.044309573483e+03 
       8.363705439076e-03       1.051753767997e+03 
       8.494809325229e-03       1.059000851535e+03 
       8.625979790500e-03       1.066054279367e+03 
       8.757214569446e-03       1.072916837123e+03 
       8.888511541496e-03       1.079591171983e+03 
       9.019868721331e-03       1.086079826828e+03 
       9.151284250039e-03       1.092385878502e+03 
       9.282756386994e-03       1.098511617790e+03 
       9.414283502372e-03       1.104459933890e+03 
       9.545864070270e-03       1.110233139521e+03 
       9.677496662351e-03       1.115833929264e+03 
       9.809179941995e-03       1.121264921985e+03 
       9.940912658886e-03       1.126528204613e+03 
       1.007269364402e-02       1.131626481956e+03 
       1.020452180510e-02       1.136562151814e+03 
       1.033639612222e-02       1.141339341566e+03 
       1.046831564399e-02       1.145957230729e+03 
       1.060027948378e-02       1.150418858696e+03 
       1.073228681639e-02       1.154727163253e+03 
       1.086433687490e-02       1.158884202741e+03 
       1.099642894770e-02       1.162892041954e+03 
       1.112856237583e-02       1.166753013057e+03 
       1.126073655044e-02       1.170468851138e+03 
       1.139295091047e-02       1.174042348415e+03 
       1.152520494046e-02       1.177474892825e+03 
       1.165749816853e-02       1.180768296006e+03 
       1.178983016452e-02       1.183925671589e+03 
       1.192220053825e-02       1.186947780372e+03 
       1.205460893787e-02       1.189836909281e+03 
       1.218705504840e-02       1.192595364191e+03 
       1.231953859028e-02       1.195225116491e+03 
       1.245205931810e-02       1.197726530118e+03 
       1.258461701939e-02       1.200103414991e+03 
       1.271721151347e-02       1.202356365420e+03 
       1.284984265044e-02       1.204487466720e+03 
       1.298251031021e-02       1.206497807909e+03 
       1.311521440158e-02       1.208390570971e+03 
       1.324795486143e-02       1.210166579880e+03 
       1.338073165393e-02       1.211827296754e+03 
       1.351354476986e-02       1.213375114216e+03 
       1.364639422595e-02       1.214811276772e+03 
       1.377928006424e-02       1.216137261126e+03 
       1.391220235156e-02       1.217354896895e+03 
       1.404516117903e-02       1.218465963883e+03 
       1.417815666155e-02       1.219472184040e+03 
       1.431118893742e-02       1.220374052213e+03 
       1.444425816794e-02       1.221174756949e+03 
       1.457736453706e-02       1.221874215262e+03 
       1.471050825103e-02       1.222474986902e+03 
       1.484368953822e-02       1.222977800284e+03 
       1.497690864875e-02       1.223384884807e+03 
       1.511016585436e-02       1.223696855346e+03 
       1.524346144820e-02       1.223916194292e+03 
       1.537679574464e-02       1.224043700249e+03 
       1.551016907917e-02       1.224080827246e+03 
       1.564358180828e-02       1.224029342014e+03 
       1.577703430938e-02       1.223890150889e+03 
       1.591052698073e-02       1.223664971823e+03 
       1.604406024142e-02       1.223355153594e+03 
       1.617763453133e-02       1.222962028530e+03 
       1.631125031118e-02       1.222486615692e+03 
       1.644490806251e-02       1.221930569622e+03 
       1.657860828775e-02       1.221295224845e+03 
       1.671235151029e-02       1.220581846055e+03 
       1.684613827459e-02       1.219791750093e+03 
       1.697996914622e-02       1.218925143157e+03 
       1.711384471207e-02       1.217984307718e+03 
       1.724776558040e-02       1.216971450104e+03 
       1.738173238109e-02       1.215886824917e+03 
       1.751574576578e-02       1.214730458679e+03 
       1.764980640804e-02       1.213504855579e+03 
       1.778391500363e-02       1.212211045244e+03 
       1.791807227070e-02       1.210850343205e+03 
       1.805227895006e-02       1.209423263570e+03 
       1.818653580541e-02       1.207931789752e+03 
       1.832084362365e-02       1.206376122456e+03 
       1.845520321520e-02       1.204758062594e+03 
       1.858961541424e-02       1.203077975508e+03 
       1.872408107911e-02       1.201338036207e+03 
       1.885860109264e-02       1.199538871667e+03 
       1.899317636251e-02       1.197680337459e+03 
       1.912780782161e-02       1.195765453930e+03 
       1.926249642850e-02       1.193793104485e+03 
       1.939724316775e-02       1.191767955023e+03 
       1.953204905044e-02       1.189685293647e+03 
       1.966691511458e-02       1.187553115843e+03 
       1.980184242558e-02       1.185366383758e+03 
       1.993683207674e-02       1.183129491037e+03 
       2.007188518977e-02       1.180842814409e+03 
       2.020700291530e-02       1.178505124526e+03 
       2.034218643342e-02       1.176119813470e+03 
       2.047743695426e-02       1.173687868327e+03 
       2.061275571856e-02       1.171209488789e+03 
       2.074814399829e-02       1.168685350331e+03 
       2.088360309724e-02       1.166116563755e+03 
       2.101913435170e-02       1.163504043375e+03 
       2.115473913110e-02       1.160848603145e+03 
       2.129041883873e-02       1.158153716665e+03 
       2.142617491241e-02       1.155415467967e+03 
       2.156200882525e-02       1.152638604957e+03 
       2.169792208640e-02       1.149822079705e+03 
       2.183391624183e-02       1.146967122136e+03 
       2.196999287514e-02       1.144075587646e+03 
       2.210615360838e-02       1.141145501389e+03 
       2.224240010293e-02       1.138182393764e+03 
       2.237873406036e-02       1.135181861419e+03 
       2.251515722336e-02       1.132147914633e+03 
       2.265167137665e-02       1.129083222272e+03 
       2.278827834800e-02       1.125983672560e+03 
       2.292498000920e-02       1.122852340549e+03 
       2.306177827707e-02       1.119691653868e+03 
       2.319867511457e-02       1.116499490964e+03 
       2.333567253186e-02       1.113279253894e+03 
       2.347277258747e-02       1.110029129881e+03 
       2.360997738941e-02       1.106752690118e+03 
       2.374728909641e-02       1.103448146093e+03 
       2.388470991917e-02       1.100119594750e+03 
       2.402224212160e-02       1.096764487315e+03 
       2.415988802217e-02       1.093384163071e+03 
       2.429764999526e-02       1.089977943990e+03 
       2.443553047256e-02       1.086550640478e+03 
       2.457353194453e-02       1.083101820871e+03 
       2.471165696187e-02       1.079629378281e+03 
       2.484990813710e-02       1.076135677544e+03 
       2.498828814611e-02       1.072622349359e+03 
       2.512679972984e-02       1.069087161689e+03 
       2.526544569592e-02       1.065534136178e+03 
       2.540422892050e-02       1.061963189449e+03 
       2.554315234997e-02       1.058372942759e+03 
       2.568221900292e-02       1.054764751119e+03 
       2.582143197196e-02       1.051139261387e+03 
       2.596079442580e-02       1.047498557768e+03 
       2.610030961129e-02       1.043842734724e+03 
       2.623998085549e-02       1.040173758733e+03 
       2.637981156794e-02       1.036486661416e+03 
       2.651980524290e-02       1.032787746904e+03 
       2.665996546168e-02       1.029073845826e+03 
       2.680029589511e-02       1.025349158769e+03 
       2.694080030602e-02       1.021609906835e+03 
       2.708148255186e-02       1.017861075409e+03 
       2.722234658737e-02       1.014101017601e+03 
       2.736339646738e-02       1.010328491945e+03 
       2.750463634970e-02       1.006544770869e+03 
       2.764607049807e-02       1.002754966128e+03 
       2.778770328530e-02       9.989521430131e+02 
       2.792953919641e-02       9.951456199641e+02 
       2.807158283200e-02       9.913265510860e+02 
       2.821383891169e-02       9.874994053051e+02 
       2.835631227763e-02       9.836655332015e+02 
       2.849900789825e-02       9.798256217388e+02 
       2.864193087208e-02       9.759805527902e+02 
       2.878508643170e-02       9.721255170726e+02 
       2.892847994792e-02       9.682678604687e+02 
       2.907211693401e-02       9.644021343738e+02 
       2.921600305018e-02       9.605376657879e+02 
       2.936014410820e-02       9.566621399660e+02 
       2.950454607619e-02       9.527851665952e+02 
       2.964921508358e-02       9.489036789943e+02 
       2.979415742637e-02       9.450212912255e+02 
       2.993937957245e-02       9.411336667040e+02 
       3.008488816723e-02       9.372435370156e+02 
       3.023069003948e-02       9.333512436094e+02 
       3.037679220740e-02       9.294568212313e+02 
       3.052320188494e-02       9.255606909133e+02 
       3.066992648838e-02       9.216643877780e+02 
       3.081697364318e-02       9.177684133455e+02 
       3.096435119115e-02       9.138668784915e+02 
       3.111206719787e-02       9.099671153364e+02 
       3.126012996051e-02       9.060687714587e+02 
       3.140854801586e-02       9.021729544958e+02 
       3.155733014887e-02       8.982741067622e+02 
       3.170648540141e-02       8.943764993382e+02 
       3.185602308155e-02       8.904805380725e+02 
       3.200595277315e-02       8.865888210674e+02 
       3.215628434598e-02       8.826948338345e+02 
       3.230702796621e-02       8.788048207723e+02 
       3.245819410741e-02       8.749167184739e+02 
       3.260979356215e-02       8.710279126555e+02 
       3.276183745398e-02       8.671449927393e+02 
       3.291433725013e-02       8.632654666807e+02 
       3.306730477471e-02       8.593872492821e+02 
       3.322075222260e-02       8.555098642265e+02 
       3.337469217403e-02       8.516399218293e+02 
       3.352913760980e-02       8.477752453032e+02 
       3.368410192736e-02       8.439103920122e+02 
       3.383959895760e-02       8.400509552854e+02 
       3.399564298254e-02       8.361958268324e+02 
       3.415224875396e-02       8.323439247761e+02 
       3.430943151287e-02       8.284991708429e+02 
       3.446720701016e-02       8.246546464240e+02 
       3.462559152820e-02       8.208194592147e+02 
       3.478460190367e-02       8.169865067407e+02 
       3.494425555159e-02       8.131600666452e+02 
       3.510457049068e-02       8.093369032981e+02 
       3.526556537007e-02       8.055233982710e+02 
       3.542725949757e-02       8.017115078818e+02 
       3.558967286947e-02       7.979056244931e+02 
       3.575282620204e-02       7.941041651732e+02 
       3.591674096486e-02       7.903098328944e+02 
       3.608143941613e-02       7.865215606840e+02 
       3.624694463996e-02       7.827385846250e+02 
       3.641328058594e-02       7.789631554748e+02 
       3.658047211114e-02       7.751921623359e+02 
       3.674854502456e-02       7.714283558261e+02 
       3.691752613441e-02       7.676683057270e+02 
       3.708744329831e-02       7.639149595130e+02 
       3.725832547669e-02       7.601674265003e+02 
       3.743020278953e-02       7.564265963011e+02 
       3.760310657689e-02       7.526910852669e+02 
       3.777706946333e-02       7.489652852608e+02 
       3.795212542663e-02       7.452405747467e+02 
       3.812830987117e-02       7.415237787560e+02 
       3.830565970624e-02       7.378128718235e+02 
       3.848421342989e-02       7.341101338532e+02 
       3.866401121852e-02       7.304112739751e+02 
       3.884509502293e-02       7.267164401785e+02 
       3.902750867120e-02       7.230312236969e+02 
       3.921129797920e-02       7.193504885083e+02 
       3.939651086917e-02       7.156729545786e+02 
       3.958319749728e-02       7.120015243971e+02 
       3.977141039084e-02       7.083372897405e+02 
       3.996120459624e-02       7.046778842780e+02 
       4.015263783837e-02       7.010233474355e+02 
       4.034577069283e-02       6.973720496515e+02 
       4.054066677207e-02       6.937275265913e+02 
       4.073739292676e-02       6.900853030873e+02 
       4.093601946408e-02       6.864490015614e+02 
       4.113662038441e-02       6.828187782897e+02 
       4.133927363850e-02       6.791910868745e+02 
       4.154406140720e-02       6.755644665616e+02 
       4.175107040600e-02       6.719505570266e+02 
       4.196039221729e-02       6.683259842281e+02 
       4.217212365321e-02       6.647111470273e+02 
       4.238636715250e-02       6.610978501461e+02 
       4.260323121533e-02       6.574847299701e+02 
       4.282283088035e-02       6.538783891983e+02 
       4.304528824899e-02       6.502677482913e+02 
       4.327073306268e-02       6.466620352814e+02 
       4.349930333937e-02       6.430572535814e+02 
       4.373114607684e-02       6.394492285176e+02 
       4.396641803108e-02       6.358422453794e+02 
       4.420528657961e-02       6.322346059971e+02 
       4.444793068082e-02       6.286244984119e+02 
       4.469454194227e-02       6.250123075154e+02 
       4.494532581288e-02       6.213957971931e+02 
       4.520050291638e-02       6.177782718954e+02 
       4.546031054620e-02       6.141536869419e+02 
       4.572500434546e-02       6.105244970987e+02 
       4.599486019958e-02       6.068873815271e+02 
       4.627017637418e-02       6.032437907365e+02 
       4.655127593643e-02       5.995923423391e+02 
       4.683850950528e-02       5.959330419794e+02 
       4.713225838436e-02       5.922608560247e+02 
       4.743293814168e-02       5.885774081619e+02 
       4.774100271297e-02       5.848806638099e+02 
       4.805694912064e-02       5.811685013859e+02 
       4.838132291952e-02       5.774408698321e+02 
       4.871472450393e-02       5.736964027521e+02 
       4.905781643925e-02       5.699279123359e+02 
       4.941133201783e-02       5.661397013754e+02 
       4.977608528353e-02       5.623257511635e+02 
       5.015298282618e-02       5.584852591247e+02 
       5.054303771845e-02       5.546130447638e+02 
       5.094738605757e-02       5.507068312065e+02 
       5.136730668884e-02       5.467646888830e+02 
       5.180424483333e-02       5.427815305017e+02 
       5.225984052739e-02       5.387503653263e+02 
       5.273596301788e-02       5.346686718118e+02 
       5.323475255774e-02       5.305272245324e+02 
       5.375867142783e-02       5.263196120216e+02 
       5.431056648953e-02       5.220360998664e+02 
       5.489374616450e-02       5.176674143960e+02 
       5.551207544878e-02       5.132008849533e+02 
       5.617009337762e-02       5.086191346799e+02 
       5.687315818582e-02       5.039030401421e+02 
       5.762762604582e-02       4.990273152509e+02 
       5.844106924229e-02       4.939624637437e+02 
       5.932253797381e-02       4.886674291845e+02 
       6.028286471725e-02       4.830898691829e+02 
       6.133499760901e-02       4.771614817556e+02 
       6.249432323971e-02       4.707915095913e+02 
       6.377888977286e-02       4.638596146753e+02 
       6.520935658723e-02       4.562045825702e+02 
