# Matter power spectrum P(k) at redshift z=3.5
# for k=1.04575e-05 to 1006.15 h/Mpc,
# number of wavenumbers equal to 625
#    1:k (h/Mpc)              2:P (Mpc/h)^3        
       1.045749810485e-05       3.516323201246e+00 
       2.373043761528e-05       7.872780374996e+00 
       3.705205197341e-05       1.219580442391e+01 
       5.046040160262e-05       1.651463277487e+01 
       6.399420676399e-05       2.084919530107e+01 
       7.769321405898e-05       2.521632452107e+01 
       9.159857522556e-05       2.963161981662e+01 
       1.057532435558e-04       3.411027325193e+01 
       1.202023933008e-04       3.866753840730e+01 
       1.349938674647e-04       4.331904971295e+01 
       1.501786593808e-04       4.808107403513e+01 
       1.658114333596e-04       5.297073059704e+01 
       1.819510894196e-04       5.800619780980e+01 
       1.986613765579e-04       6.320691726942e+01 
       2.160115580438e-04       6.859380023479e+01 
       2.340771306401e-04       7.418943973680e+01 
       2.529405972213e-04       8.001832894319e+01 
       2.726922886571e-04       8.610708513066e+01 
       2.934312256600e-04       9.248467513241e+01 
       3.152660040981e-04       9.918263656267e+01 
       3.383156775180e-04       1.062352855804e+02 
       3.627105977775e-04       1.136798967303e+02 
       3.885931583209e-04       1.215568363649e+02 
       4.161183645581e-04       1.299096243423e+02 
       4.454541324261e-04       1.387848914320e+02 
       4.767811907995e-04       1.482321939319e+02 
       5.102924387431e-04       1.583036382230e+02 
       5.461915893473e-04       1.690532663073e+02 
       5.846909251320e-04       1.805361532172e+02 
       6.260080050474e-04       1.928071757458e+02 
       6.703612104985e-04       2.059194304299e+02 
       7.179641068864e-04       2.199223134491e+02 
       7.690187318622e-04       2.348593201015e+02 
       8.237080952403e-04       2.507656813227e+02 
       8.821883665213e-04       2.676660106986e+02 
       9.445813962622e-04       2.855721810401e+02 
       1.010968318642e-03       3.044816845509e+02 
       1.081384969221e-03       3.243766872072e+02 
       1.155819700313e-03       3.452239402844e+02 
       1.234213899658e-03       3.669756015818e+02 
       1.316465168833e-03       3.895708870254e+02 
       1.402432774394e-03       4.129383784210e+02 
       1.491944724558e-03       4.369987409487e+02 
       1.584805697329e-03       4.616675522918e+02 
       1.680805061300e-03       4.868580038553e+02 
       1.779724358910e-03       5.124833136933e+02 
       1.881343813733e-03       5.384587061154e+02 
       1.985447627100e-03       5.647029311062e+02 
       2.091828006459e-03       5.911393744809e+02 
       2.200287998256e-03       6.176967603792e+02 
       2.310643277916e-03       6.443087102513e+02 
       2.422723085604e-03       6.709163147009e+02 
       2.536370500476e-03       6.974659439933e+02 
       2.651442230081e-03       7.239095578247e+02 
       2.767808065318e-03       7.502044364609e+02 
       2.885350122018e-03       7.763130629761e+02 
       3.003961962113e-03       8.022024116494e+02 
       3.123547662764e-03       8.278437750152e+02 
       3.244020881646e-03       8.532122057216e+02 
       3.365303950641e-03       8.782861355756e+02 
       3.487327018288e-03       9.030470204678e+02 
       3.610027252458e-03       9.274789799781e+02 
       3.733348108622e-03       9.515686773383e+02 
       3.857238664757e-03       9.753047366546e+02 
       3.981653021215e-03       9.986777490130e+02 
       4.106549762154e-03       1.021680180769e+03 
       4.231891474164e-03       1.044305729774e+03 
       4.357644317282e-03       1.066549895139e+03 
       4.483777643502e-03       1.088408923864e+03 
       4.610263657980e-03       1.109880605376e+03 
       4.737077118433e-03       1.130963224445e+03 
       4.864195068510e-03       1.151656164179e+03 
       4.991596601329e-03       1.171959606503e+03 
       5.119262649698e-03       1.191873950380e+03 
       5.247175799933e-03       1.211400729283e+03 
       5.375320126495e-03       1.230541326917e+03 
       5.503681045008e-03       1.249297962992e+03 
       5.632245181484e-03       1.267673450465e+03 
       5.761000255846e-03       1.285670351901e+03 
       5.889934978076e-03       1.303291837135e+03 
       6.019038955502e-03       1.320541258666e+03 
       6.148302609931e-03       1.337422042311e+03 
       6.277717103485e-03       1.353938112729e+03 
       6.407274272154e-03       1.370093555265e+03 
       6.536966566162e-03       1.385891755687e+03 
       6.666786996400e-03       1.401337160419e+03 
       6.796729086234e-03       1.416433768259e+03 
       6.926786828089e-03       1.431185813306e+03 
       7.056954644300e-03       1.445597997016e+03 
       7.187227351743e-03       1.459674395689e+03 
       7.317600129859e-03       1.473419175082e+03 
       7.448068491705e-03       1.486836766735e+03 
       7.578628257697e-03       1.499931707245e+03 
       7.709275531791e-03       1.512707644544e+03 
       7.840006679834e-03       1.525169939325e+03 
       7.970818309857e-03       1.537322395729e+03 
       8.101707254141e-03       1.549168655483e+03 
       8.232670552846e-03       1.560713888529e+03 
       8.363705439076e-03       1.571962123291e+03 
       8.494809325229e-03       1.582916502873e+03 
       8.625979790500e-03       1.593582097830e+03 
       8.757214569446e-03       1.603962976518e+03 
       8.888511541496e-03       1.614063010608e+03 
       9.019868721331e-03       1.623885914627e+03 
       9.151284250039e-03       1.633436115852e+03 
       9.282756386994e-03       1.642719097011e+03 
       9.414283502372e-03       1.651736158534e+03 
       9.545864070270e-03       1.660490997942e+03 
       9.677496662351e-03       1.668988138689e+03 
       9.809179941995e-03       1.677231480002e+03 
       9.940912658886e-03       1.685224089282e+03 
       1.007269364402e-02       1.692969966670e+03 
       1.020452180510e-02       1.700472692790e+03 
       1.033639612222e-02       1.707735423198e+03 
       1.046831564399e-02       1.714762222656e+03 
       1.060027948378e-02       1.721555249052e+03 
       1.073228681639e-02       1.728118860094e+03 
       1.086433687490e-02       1.734456121037e+03 
       1.099642894770e-02       1.740570101821e+03 
       1.112856237583e-02       1.746464277140e+03 
       1.126073655044e-02       1.752141229352e+03 
       1.139295091047e-02       1.757605121008e+03 
       1.152520494046e-02       1.762858016944e+03 
       1.165749816853e-02       1.767902618137e+03 
       1.178983016452e-02       1.772743571937e+03 
       1.192220053825e-02       1.777382003892e+03 
       1.205460893787e-02       1.781821323555e+03 
       1.218705504840e-02       1.786064969280e+03 
       1.231953859028e-02       1.790115878036e+03 
       1.245205931810e-02       1.793974579855e+03 
       1.258461701939e-02       1.797646767276e+03 
       1.271721151347e-02       1.801133316581e+03 
       1.284984265044e-02       1.804437337651e+03 
       1.298251031021e-02       1.807560448829e+03 
       1.311521440158e-02       1.810507405853e+03 
       1.324795486143e-02       1.813279425921e+03 
       1.338073165393e-02       1.815878690188e+03 
       1.351354476986e-02       1.818308765932e+03 
       1.364639422595e-02       1.820571505205e+03 
       1.377928006424e-02       1.822669116864e+03 
       1.391220235156e-02       1.824604362756e+03 
       1.404516117903e-02       1.826379777086e+03 
       1.417815666155e-02       1.827997897821e+03 
       1.431118893742e-02       1.829459449595e+03 
       1.444425816794e-02       1.830769240813e+03 
       1.457736453706e-02       1.831927110653e+03 
       1.471050825103e-02       1.832936868639e+03 
       1.484368953822e-02       1.833799573039e+03 
       1.497690864875e-02       1.834518539544e+03 
       1.511016585436e-02       1.835094661738e+03 
       1.524346144820e-02       1.835531633177e+03 
       1.537679574464e-02       1.835830622076e+03 
       1.551016907917e-02       1.835993790100e+03 
       1.564358180828e-02       1.836023753369e+03 
       1.577703430938e-02       1.835921849863e+03 
       1.591052698073e-02       1.835690630690e+03 
       1.604406024142e-02       1.835332094926e+03 
       1.617763453133e-02       1.834848222205e+03 
       1.631125031118e-02       1.834240520415e+03 
       1.644490806251e-02       1.833511448940e+03 
       1.657860828775e-02       1.832662993719e+03 
       1.671235151029e-02       1.831697032358e+03 
       1.684613827459e-02       1.830615529574e+03 
       1.697996914622e-02       1.829418778899e+03 
       1.711384471207e-02       1.828110186625e+03 
       1.724776558040e-02       1.826693059297e+03 
       1.738173238109e-02       1.825167761488e+03 
       1.751574576578e-02       1.823534321045e+03 
       1.764980640804e-02       1.821796491954e+03 
       1.778391500363e-02       1.819955810201e+03 
       1.791807227070e-02       1.818014234815e+03 
       1.805227895006e-02       1.815972538299e+03 
       1.818653580541e-02       1.813833682503e+03 
       1.832084362365e-02       1.811597968208e+03 
       1.845520321520e-02       1.809268085270e+03 
       1.858961541424e-02       1.806844574102e+03 
       1.872408107911e-02       1.804330699281e+03 
       1.885860109264e-02       1.801727387143e+03 
       1.899317636251e-02       1.799034413671e+03 
       1.912780782161e-02       1.796256307001e+03 
       1.926249642850e-02       1.793391376467e+03 
       1.939724316775e-02       1.790446623782e+03 
       1.953204905044e-02       1.787414953492e+03 
       1.966691511458e-02       1.784308374329e+03 
       1.980184242558e-02       1.781119296271e+03 
       1.993683207674e-02       1.777854304490e+03 
       2.007188518977e-02       1.774513955394e+03 
       2.020700291530e-02       1.771096387968e+03 
       2.034218643342e-02       1.767606676474e+03 
       2.047743695426e-02       1.764046289287e+03 
       2.061275571856e-02       1.760415505944e+03 
       2.074814399829e-02       1.756715321843e+03 
       2.088360309724e-02       1.752947393014e+03 
       2.101913435170e-02       1.749113072789e+03 
       2.115473913110e-02       1.745213554473e+03 
       2.129041883873e-02       1.741254049462e+03 
       2.142617491241e-02       1.737228644451e+03 
       2.156200882525e-02       1.733144460204e+03 
       2.169792208640e-02       1.728999889694e+03 
       2.183391624183e-02       1.724796774621e+03 
       2.196999287514e-02       1.720537872039e+03 
       2.210615360838e-02       1.716220192448e+03 
       2.224240010293e-02       1.711852039265e+03 
       2.237873406036e-02       1.707426770860e+03 
       2.251515722336e-02       1.702950387973e+03 
       2.265167137665e-02       1.698426897521e+03 
       2.278827834800e-02       1.693850097710e+03 
       2.292498000920e-02       1.689224587448e+03 
       2.306177827707e-02       1.684554016192e+03 
       2.319867511457e-02       1.679835167089e+03 
       2.333567253186e-02       1.675073148469e+03 
       2.347277258747e-02       1.670265226302e+03 
       2.360997738941e-02       1.665416763319e+03 
       2.374728909641e-02       1.660525050244e+03 
       2.388470991917e-02       1.655596257320e+03 
       2.402224212160e-02       1.650626535409e+03 
       2.415988802217e-02       1.645617897776e+03 
       2.429764999526e-02       1.640569324528e+03 
       2.443553047256e-02       1.635488055234e+03 
       2.457353194453e-02       1.630373427314e+03 
       2.471165696187e-02       1.625222282176e+03 
       2.484990813710e-02       1.620038192417e+03 
       2.498828814611e-02       1.614823597492e+03 
       2.512679972984e-02       1.609575141204e+03 
       2.526544569592e-02       1.604298909254e+03 
       2.540422892050e-02       1.598994760996e+03 
       2.554315234997e-02       1.593660645422e+03 
       2.568221900292e-02       1.588298611147e+03 
       2.582143197196e-02       1.582909638539e+03 
       2.596079442580e-02       1.577496868694e+03 
       2.610030961129e-02       1.572060479620e+03 
       2.623998085549e-02       1.566603429537e+03 
       2.637981156794e-02       1.561118248024e+03 
       2.651980524290e-02       1.555614461214e+03 
       2.665996546168e-02       1.550087293975e+03 
       2.680029589511e-02       1.544543098513e+03 
       2.694080030602e-02       1.538976194936e+03 
       2.708148255186e-02       1.533394097805e+03 
       2.722234658737e-02       1.527794367581e+03 
       2.736339646738e-02       1.522175135366e+03 
       2.750463634970e-02       1.516538330491e+03 
       2.764607049807e-02       1.510891663959e+03 
       2.778770328530e-02       1.505224718863e+03 
       2.792953919641e-02       1.499551546839e+03 
       2.807158283200e-02       1.493858827104e+03 
       2.821383891169e-02       1.488153320780e+03 
       2.835631227763e-02       1.482437055723e+03 
       2.849900789825e-02       1.476711096332e+03 
       2.864193087208e-02       1.470976778455e+03 
       2.878508643170e-02       1.465226870972e+03 
       2.892847994792e-02       1.459472466859e+03 
       2.907211693401e-02       1.453705325383e+03 
       2.921600305018e-02       1.447939565179e+03 
       2.936014410820e-02       1.442156600468e+03 
       2.950454607619e-02       1.436370939206e+03 
       2.964921508358e-02       1.430577949861e+03 
       2.979415742637e-02       1.424783117571e+03 
       2.993937957245e-02       1.418979912704e+03 
       3.008488816723e-02       1.413172433625e+03 
       3.023069003948e-02       1.407361210338e+03 
       3.037679220740e-02       1.401546310150e+03 
       3.052320188494e-02       1.395728358390e+03 
       3.066992648838e-02       1.389909712485e+03 
       3.081697364318e-02       1.384091083209e+03 
       3.096435119115e-02       1.378263645045e+03 
       3.111206719787e-02       1.372438421775e+03 
       3.126012996051e-02       1.366614899330e+03 
       3.140854801586e-02       1.360794752431e+03 
       3.155733014887e-02       1.354969600488e+03 
       3.170648540141e-02       1.349145887114e+03 
       3.185602308155e-02       1.343324228464e+03 
       3.200595277315e-02       1.337508558047e+03 
       3.215628434598e-02       1.331689042049e+03 
       3.230702796621e-02       1.325875105002e+03 
       3.245819410741e-02       1.320063638838e+03 
       3.260979356215e-02       1.314250705518e+03 
       3.276183745398e-02       1.308446236927e+03 
       3.291433725013e-02       1.302646473125e+03 
       3.306730477471e-02       1.296848294885e+03 
       3.322075222260e-02       1.291050969504e+03 
       3.337469217403e-02       1.285264462284e+03 
       3.352913760980e-02       1.279485515526e+03 
       3.368410192736e-02       1.273705901842e+03 
       3.383959895760e-02       1.267934068766e+03 
       3.399564298254e-02       1.262168350141e+03 
       3.415224875396e-02       1.256407098430e+03 
       3.430943151287e-02       1.250656249113e+03 
       3.446720701016e-02       1.244905361555e+03 
       3.462559152820e-02       1.239168162348e+03 
       3.478460190367e-02       1.233433958845e+03 
       3.494425555159e-02       1.227709197858e+03 
       3.510457049068e-02       1.221988990019e+03 
       3.526556537007e-02       1.216282971252e+03 
       3.542725949757e-02       1.210578995866e+03 
       3.558967286947e-02       1.204883667539e+03 
       3.575282620204e-02       1.199194651772e+03 
       3.591674096486e-02       1.193516001007e+03 
       3.608143941613e-02       1.187846100121e+03 
       3.624694463996e-02       1.182183790633e+03 
       3.641328058594e-02       1.176532469572e+03 
       3.658047211114e-02       1.170887437114e+03 
       3.674854502456e-02       1.165252839989e+03 
       3.691752613441e-02       1.159623498932e+03 
       3.708744329831e-02       1.154003844959e+03 
       3.725832547669e-02       1.148392535456e+03 
       3.743020278953e-02       1.142790912564e+03 
       3.760310657689e-02       1.137196883656e+03 
       3.777706946333e-02       1.131617065315e+03 
       3.795212542663e-02       1.126038437411e+03 
       3.812830987117e-02       1.120471292665e+03 
       3.830565970624e-02       1.114912568047e+03 
       3.848421342989e-02       1.109365705032e+03 
       3.866401121852e-02       1.103824217340e+03 
       3.884509502293e-02       1.098288326900e+03 
       3.902750867120e-02       1.092766449926e+03 
       3.921129797920e-02       1.087250843740e+03 
       3.939651086917e-02       1.081739576789e+03 
       3.958319749728e-02       1.076237005997e+03 
       3.977141039084e-02       1.070744792245e+03 
       3.996120459624e-02       1.065259348672e+03 
       4.015263783837e-02       1.059780750937e+03 
       4.034577069283e-02       1.054306524919e+03 
       4.054066677207e-02       1.048842019824e+03 
       4.073739292676e-02       1.043380458831e+03 
       4.093601946408e-02       1.037927339608e+03 
       4.113662038441e-02       1.032482906529e+03 
       4.133927363850e-02       1.027041806255e+03 
       4.154406140720e-02       1.021601826548e+03 
       4.175107040600e-02       1.016180592647e+03 
       4.196039221729e-02       1.010742766261e+03 
       4.217212365321e-02       1.005319217382e+03 
       4.238636715250e-02       9.998975766636e+02 
       4.260323121533e-02       9.944757948394e+02 
       4.282283088035e-02       9.890638874703e+02 
       4.304528824899e-02       9.836451198241e+02 
       4.327073306268e-02       9.782334857724e+02 
       4.349930333937e-02       9.728229709369e+02 
       4.373114607684e-02       9.674072884698e+02 
       4.396641803108e-02       9.619929592374e+02 
       4.420528657961e-02       9.565774547582e+02 
       4.444793068082e-02       9.511580772941e+02 
       4.469454194227e-02       9.457354468450e+02 
       4.494532581288e-02       9.403062214811e+02 
       4.520050291638e-02       9.348754458760e+02 
       4.546031054620e-02       9.294340231020e+02 
       4.572500434546e-02       9.239857119541e+02 
       4.599486019958e-02       9.185255275405e+02 
       4.627017637418e-02       9.130557124383e+02 
       4.655127593643e-02       9.075742136975e+02 
       4.683850950528e-02       9.020810869767e+02 
       4.713225838436e-02       8.965687571547e+02 
       4.743293814168e-02       8.910397120569e+02 
       4.774100271297e-02       8.854909139292e+02 
       4.805694912064e-02       8.799191844681e+02 
       4.838132291952e-02       8.743244570173e+02 
       4.871472450393e-02       8.687046961846e+02 
       4.905781643925e-02       8.630490459096e+02 
       4.941133201783e-02       8.573640518477e+02 
       4.977608528353e-02       8.516405824227e+02 
       5.015298282618e-02       8.458774463201e+02 
       5.054303771845e-02       8.400668085773e+02 
       5.094738605757e-02       8.342052309817e+02 
       5.136730668884e-02       8.282898189194e+02 
       5.180424483333e-02       8.223128614980e+02 
       5.225984052739e-02       8.162638222319e+02 
       5.273596301788e-02       8.101389142080e+02 
       5.323475255774e-02       8.039242182772e+02 
       5.375867142783e-02       7.976101089925e+02 
       5.431056648953e-02       7.911819758071e+02 
       5.489374616450e-02       7.846258932038e+02 
       5.551207544878e-02       7.779228816769e+02 
       5.617009337762e-02       7.710468721408e+02 
       5.687315818582e-02       7.639691977181e+02 
       5.762762604582e-02       7.566518976156e+02 
       5.844106924229e-02       7.490506828318e+02 
       5.932253797381e-02       7.411037762324e+02 
       6.028286471725e-02       7.327322146432e+02 
       6.133499760901e-02       7.238327351907e+02 
       6.249432323971e-02       7.142677189875e+02 
       6.377888977286e-02       7.038543227044e+02 
       6.520935658723e-02       6.923472466781e+02 
