# Matter power spectrum P(k) at redshift z=5.5
# for k=1.04575e-05 to 1006.15 h/Mpc,
# number of wavenumbers equal to 625
#    1:k (h/Mpc)              2:P (Mpc/h)^3        
       1.045749810485e-05       1.707276177233e+00 
       2.373043761528e-05       3.822464527318e+00 
       3.705205197341e-05       5.921427000689e+00 
       5.046040160262e-05       8.018363140029e+00 
       6.399420676399e-05       1.012295356893e+01 
       7.769321405898e-05       1.224337551506e+01 
       9.159857522556e-05       1.438720788459e+01 
       1.057532435558e-04       1.656183241303e+01 
       1.202023933008e-04       1.877466152325e+01 
       1.349938674647e-04       2.103329363561e+01 
       1.501786593808e-04       2.334563516118e+01 
       1.658114333596e-04       2.572000814135e+01 
       1.819510894196e-04       2.816525046133e+01 
       1.986613765579e-04       3.069081564074e+01 
       2.160115580438e-04       3.330687325485e+01 
       2.340771306401e-04       3.602441290470e+01 
       2.529405972213e-04       3.885535063653e+01 
       2.726922886571e-04       4.181263847848e+01 
       2.934312256600e-04       4.491037511558e+01 
       3.152660040981e-04       4.816391442564e+01 
       3.383156775180e-04       5.158996787023e+01 
       3.627105977775e-04       5.520669330737e+01 
       3.885931583209e-04       5.903376207922e+01 
       4.161183645581e-04       6.309239079188e+01 
       4.454541324261e-04       6.740532335332e+01 
       4.767811907995e-04       7.199674322690e+01 
       5.102924387431e-04       7.689209371466e+01 
       5.461915893473e-04       8.211778149389e+01 
       5.846909251320e-04       8.770073934578e+01 
       6.260080050474e-04       9.366782783987e+01 
       6.703612104985e-04       1.000450642387e+02 
       7.179641068864e-04       1.068566831937e+02 
       7.690187318622e-04       1.141240576299e+02 
       8.237080952403e-04       1.218645339461e+02 
       8.821883665213e-04       1.300902673885e+02 
       9.445813962622e-04       1.388071631159e+02 
       1.010968318642e-03       1.480140500254e+02 
       1.081384969221e-03       1.577021918191e+02 
       1.155819700313e-03       1.678552201626e+02 
       1.234213899658e-03       1.784495219639e+02 
       1.316465168833e-03       1.894550455467e+02 
       1.402432774394e-03       2.008364462590e+02 
       1.491944724558e-03       2.125544493332e+02 
       1.584805697329e-03       2.245672818471e+02 
       1.680805061300e-03       2.368320476563e+02 
       1.779724358910e-03       2.493059593085e+02 
       1.881343813733e-03       2.619473431175e+02 
       1.985447627100e-03       2.747163996462e+02 
       2.091828006459e-03       2.875757397023e+02 
       2.200287998256e-03       3.004906996903e+02 
       2.310643277916e-03       3.134290839715e+02 
       2.422723085604e-03       3.263623661735e+02 
       2.536370500476e-03       3.392645819789e+02 
       2.651442230081e-03       3.521124267276e+02 
       2.767808065318e-03       3.648851869710e+02 
       2.885350122018e-03       3.775645497644e+02 
       3.003961962112e-03       3.901344072124e+02 
       3.123547662764e-03       4.025807294101e+02 
       3.244020881646e-03       4.148913367247e+02 
       3.365303950641e-03       4.270557336294e+02 
       3.487327018288e-03       4.390649461251e+02 
       3.610027252458e-03       4.509113466983e+02 
       3.733348108622e-03       4.625885825100e+02 
       3.857238664757e-03       4.740912787671e+02 
       3.981653021215e-03       4.854150204007e+02 
       4.106549762154e-03       4.965562971883e+02 
       4.231891474164e-03       5.075121780064e+02 
       4.357644317282e-03       5.182805874194e+02 
       4.483777643502e-03       5.288597965894e+02 
       4.610263657980e-03       5.392488168516e+02 
       4.737077118433e-03       5.494468981755e+02 
       4.864195068510e-03       5.594538292942e+02 
       4.991596601329e-03       5.692697921931e+02 
       5.119262649698e-03       5.788950861367e+02 
       5.247175799933e-03       5.883305634003e+02 
       5.375320126495e-03       5.975770046821e+02 
       5.503681045008e-03       6.066355939563e+02 
       5.632245181484e-03       6.155077948134e+02 
       5.761000255846e-03       6.241949398306e+02 
       5.889934978076e-03       6.326986477019e+02 
       6.019038955502e-03       6.410206165615e+02 
       6.148302609931e-03       6.491625703129e+02 
       6.277717103485e-03       6.571264692944e+02 
       6.407274272154e-03       6.649143706445e+02 
       6.536966566162e-03       6.725279682278e+02 
       6.666786996400e-03       6.799694890300e+02 
       6.796729086234e-03       6.872408825425e+02 
       6.926786828089e-03       6.943442937234e+02 
       7.056954644300e-03       7.012820305211e+02 
       7.187227351743e-03       7.080561147213e+02 
       7.317600129859e-03       7.146686072761e+02 
       7.448068491705e-03       7.211217084256e+02 
       7.578628257697e-03       7.274176503674e+02 
       7.709275531791e-03       7.335582559440e+02 
       7.840006679834e-03       7.395462385229e+02 
       7.970818309857e-03       7.453832948876e+02 
       8.101707254141e-03       7.510712579609e+02 
       8.232670552846e-03       7.566127142070e+02 
       8.363705439076e-03       7.620096748957e+02 
       8.494809325229e-03       7.672637506319e+02 
       8.625979790500e-03       7.723774503350e+02 
       8.757214569446e-03       7.773527936996e+02 
       8.888511541496e-03       7.821917153143e+02 
       9.019868721331e-03       7.868960683391e+02 
       9.151284250039e-03       7.914680867689e+02 
       9.282756386994e-03       7.959094397809e+02 
       9.414283502372e-03       8.002222243561e+02 
       9.545864070270e-03       8.044081221103e+02 
       9.677496662351e-03       8.084690911419e+02 
       9.809179941995e-03       8.124070352061e+02 
       9.940912658886e-03       8.162234742686e+02 
       1.007269364402e-02       8.199203770284e+02 
       1.020452180510e-02       8.234994985795e+02 
       1.033639612222e-02       8.269623926489e+02 
       1.046831564399e-02       8.303110488399e+02 
       1.060027948378e-02       8.335465334757e+02 
       1.073228681639e-02       8.366709715232e+02 
       1.086433687490e-02       8.396858569734e+02 
       1.099642894770e-02       8.425926835705e+02 
       1.112856237583e-02       8.453930617092e+02 
       1.126073655044e-02       8.480900381812e+02 
       1.139295091047e-02       8.506825363342e+02 
       1.152520494046e-02       8.531729902871e+02 
       1.165749816853e-02       8.555626670048e+02 
       1.178983016452e-02       8.578538126957e+02 
       1.192220053825e-02       8.600469795419e+02 
       1.205460893787e-02       8.621438272078e+02 
       1.218705504840e-02       8.641460301136e+02 
       1.231953859028e-02       8.660550193918e+02 
       1.245205931810e-02       8.678710602196e+02 
       1.258461701939e-02       8.695969135302e+02 
       1.271721151347e-02       8.712330097338e+02 
       1.284984265044e-02       8.727808565763e+02 
       1.298251031021e-02       8.742412387422e+02 
       1.311521440158e-02       8.756164561696e+02 
       1.324795486143e-02       8.769070978244e+02 
       1.338073165393e-02       8.781142141237e+02 
       1.351354476986e-02       8.792395330193e+02 
       1.364639422595e-02       8.802839504477e+02 
       1.377928006424e-02       8.812485372269e+02 
       1.391220235156e-02       8.821346871131e+02 
       1.404516117903e-02       8.829434591608e+02 
       1.417815666155e-02       8.836763691752e+02 
       1.431118893742e-02       8.843337572362e+02 
       1.444425816794e-02       8.849179747829e+02 
       1.457736453706e-02       8.854288302657e+02 
       1.471050825103e-02       8.858681617590e+02 
       1.484368953822e-02       8.862365177010e+02 
       1.497690864875e-02       8.865355019032e+02 
       1.511016585436e-02       8.867655651094e+02 
       1.524346144820e-02       8.869285284928e+02 
       1.537679574464e-02       8.870249601248e+02 
       1.551016907917e-02       8.870559129195e+02 
       1.564358180828e-02       8.870226667241e+02 
       1.577703430938e-02       8.869258719356e+02 
       1.591052698073e-02       8.867667831292e+02 
       1.604406024142e-02       8.865463671044e+02 
       1.617763453133e-02       8.862655922867e+02 
       1.631125031118e-02       8.859251928976e+02 
       1.644490806251e-02       8.855263725621e+02 
       1.657860828775e-02       8.850700916275e+02 
       1.671235151029e-02       8.845572733168e+02 
       1.684613827459e-02       8.839888598741e+02 
       1.697996914622e-02       8.833649990643e+02 
       1.711384471207e-02       8.826873585656e+02 
       1.724776558040e-02       8.819575238007e+02 
       1.738173238109e-02       8.811756791034e+02 
       1.751574576578e-02       8.803418510909e+02 
       1.764980640804e-02       8.794578449705e+02 
       1.778391500363e-02       8.785244049135e+02 
       1.791807227070e-02       8.775424869463e+02 
       1.805227895006e-02       8.765124634739e+02 
       1.818653580541e-02       8.754357649750e+02 
       1.832084362365e-02       8.743125459826e+02 
       1.845520321520e-02       8.731440974730e+02 
       1.858961541424e-02       8.719306945334e+02 
       1.872408107911e-02       8.706739036448e+02 
       1.885860109264e-02       8.693741798171e+02 
       1.899317636251e-02       8.680314263967e+02 
       1.912780782161e-02       8.666478181305e+02 
       1.926249642850e-02       8.652225530255e+02 
       1.939724316775e-02       8.637590025672e+02 
       1.953204905044e-02       8.622537640445e+02 
       1.966691511458e-02       8.607126187854e+02 
       1.980184242558e-02       8.591319114286e+02 
       1.993683207674e-02       8.575148540477e+02 
       2.007188518977e-02       8.558616750193e+02 
       2.020700291530e-02       8.541715158545e+02 
       2.034218643342e-02       8.524468213150e+02 
       2.047743695426e-02       8.506883014833e+02 
       2.061275571856e-02       8.488961141944e+02 
       2.074814399829e-02       8.470707329659e+02 
       2.088360309724e-02       8.452129756922e+02 
       2.101913435170e-02       8.433234942501e+02 
       2.115473913110e-02       8.414028789064e+02 
       2.129041883873e-02       8.394536483453e+02 
       2.142617491241e-02       8.374729673019e+02 
       2.156200882525e-02       8.354642724113e+02 
       2.169792208640e-02       8.334268012198e+02 
       2.183391624183e-02       8.313614580593e+02 
       2.196999287514e-02       8.292695706251e+02 
       2.210615360838e-02       8.271497107171e+02 
       2.224240010293e-02       8.250059006140e+02 
       2.237873406036e-02       8.228349356049e+02 
       2.251515722336e-02       8.206397138960e+02 
       2.265167137665e-02       8.184221943393e+02 
       2.278827834800e-02       8.161793821892e+02 
       2.292498000920e-02       8.139134944446e+02 
       2.306177827706e-02       8.116263193192e+02 
       2.319867511457e-02       8.093163024637e+02 
       2.333567253186e-02       8.069859049907e+02 
       2.347277258747e-02       8.046338200652e+02 
       2.360997738941e-02       8.022626426485e+02 
       2.374728909641e-02       7.998710650121e+02 
       2.388470991917e-02       7.974620592945e+02 
       2.402224212160e-02       7.950337902323e+02 
       2.415988802217e-02       7.925872236418e+02 
       2.429764999526e-02       7.901218466353e+02 
       2.443553047256e-02       7.876411730577e+02 
       2.457353194453e-02       7.851449006583e+02 
       2.471165696187e-02       7.826314685001e+02 
       2.484990813710e-02       7.801025947791e+02 
       2.498828814611e-02       7.775594835283e+02 
       2.512679972984e-02       7.750005215699e+02 
       2.526544569592e-02       7.724286096147e+02 
       2.540422892050e-02       7.698436789104e+02 
       2.554315234997e-02       7.672447337626e+02 
       2.568221900292e-02       7.646327671440e+02 
       2.582143197196e-02       7.620082534099e+02 
       2.596079442580e-02       7.593726964652e+02 
       2.610030961129e-02       7.567261487478e+02 
       2.623998085549e-02       7.540700419944e+02 
       2.637981156794e-02       7.514008025519e+02 
       2.651980524290e-02       7.487229771461e+02 
       2.665996546168e-02       7.460342825361e+02 
       2.680029589511e-02       7.433377272710e+02 
       2.694080030602e-02       7.406305939921e+02 
       2.708148255186e-02       7.379165141476e+02 
       2.722234658737e-02       7.351942860102e+02 
       2.736339646738e-02       7.324630080569e+02 
       2.750463634970e-02       7.297235823089e+02 
       2.764607049807e-02       7.269797221475e+02 
       2.778770328530e-02       7.242264001842e+02 
       2.792953919641e-02       7.214703930317e+02 
       2.807158283200e-02       7.187052920597e+02 
       2.821383891169e-02       7.159342993917e+02 
       2.835631227763e-02       7.131584110653e+02 
       2.849900789825e-02       7.103781052580e+02 
       2.864193087208e-02       7.075940537702e+02 
       2.878508643170e-02       7.048027627204e+02 
       2.892847994792e-02       7.020095464813e+02 
       2.907211693401e-02       6.992104719315e+02 
       2.921600305018e-02       6.964122858924e+02 
       2.936014410820e-02       6.936060550992e+02 
       2.950454607619e-02       6.907987378964e+02 
       2.964921508358e-02       6.879881328968e+02 
       2.979415742637e-02       6.851768544635e+02 
       2.993937957245e-02       6.823617561197e+02 
       3.008488816723e-02       6.795448165000e+02 
       3.023069003948e-02       6.767263049395e+02 
       3.037679220740e-02       6.739062082702e+02 
       3.052320188494e-02       6.710848479366e+02 
       3.066992648838e-02       6.682633313059e+02 
       3.081697364318e-02       6.654420128061e+02 
       3.096435119115e-02       6.626166480648e+02 
       3.111206719787e-02       6.597925506304e+02 
       3.126012996051e-02       6.569694468170e+02 
       3.140854801586e-02       6.541481481650e+02 
       3.155733014887e-02       6.513246222058e+02 
       3.170648540141e-02       6.485019775368e+02 
       3.185602308155e-02       6.456804929648e+02 
       3.200595277315e-02       6.428620543090e+02 
       3.215628434598e-02       6.400419419161e+02 
       3.230702796621e-02       6.372246811534e+02 
       3.245819410741e-02       6.344087718561e+02 
       3.260979356215e-02       6.315923286663e+02 
       3.276183745398e-02       6.287801219182e+02 
       3.291433725013e-02       6.259703402582e+02 
       3.306730477471e-02       6.231614639433e+02 
       3.322075222260e-02       6.203531731276e+02 
       3.337469217403e-02       6.175502652757e+02 
       3.352913760980e-02       6.147511315504e+02 
       3.368410192736e-02       6.119518352715e+02 
       3.383959895760e-02       6.091564212119e+02 
       3.399564298254e-02       6.063641168293e+02 
       3.415224875396e-02       6.035741083365e+02 
       3.430943151287e-02       6.007892568027e+02 
       3.446720701016e-02       5.980045339003e+02 
       3.462559152820e-02       5.952265496022e+02 
       3.478460190367e-02       5.924501691809e+02 
       3.494425555159e-02       5.896784507229e+02 
       3.510457049068e-02       5.869090767890e+02 
       3.526556537007e-02       5.841466955114e+02 
       3.542725949757e-02       5.813854317299e+02 
       3.558967286947e-02       5.786284950805e+02 
       3.575282620204e-02       5.758747361814e+02 
       3.591674096486e-02       5.731261010672e+02 
       3.608143941613e-02       5.703818256821e+02 
       3.624694463996e-02       5.676413623093e+02 
       3.641328058594e-02       5.649063325459e+02 
       3.658047211114e-02       5.621744827509e+02 
       3.674854502456e-02       5.594478131118e+02 
       3.691752613441e-02       5.567238225540e+02 
       3.708744329831e-02       5.540046767571e+02 
       3.725832547669e-02       5.512897028976e+02 
       3.743020278953e-02       5.485795505786e+02 
       3.760310657689e-02       5.458732282667e+02 
       3.777706946333e-02       5.431739162305e+02 
       3.795212542663e-02       5.404753508017e+02 
       3.812830987117e-02       5.377824918125e+02 
       3.830565970624e-02       5.350938865294e+02 
       3.848421342989e-02       5.324111757379e+02 
       3.866401121852e-02       5.297312380136e+02 
       3.884509502293e-02       5.270541850923e+02 
       3.902750867120e-02       5.243840940326e+02 
       3.921129797920e-02       5.217172198825e+02 
       3.939651086917e-02       5.190526322182e+02 
       3.958319749728e-02       5.163924651245e+02 
       3.977141039084e-02       5.137374846055e+02 
       3.996120459624e-02       5.110859908822e+02 
       4.015263783837e-02       5.084380106811e+02 
       4.034577069283e-02       5.057923488403e+02 
       4.054066677207e-02       5.031515956483e+02 
       4.073739292676e-02       5.005124903656e+02 
       4.093601946408e-02       4.978776873264e+02 
       4.113662038440e-02       4.952472633580e+02 
       4.133927363850e-02       4.926186770288e+02 
       4.154406140720e-02       4.899908686509e+02 
       4.175107040600e-02       4.873722643218e+02 
       4.196039221729e-02       4.847459310377e+02 
       4.217212365321e-02       4.821266677134e+02 
       4.238636715250e-02       4.795085154188e+02 
       4.260323121533e-02       4.768905110808e+02 
       4.282283088035e-02       4.742774147913e+02 
       4.304528824899e-02       4.716612250191e+02 
       4.327073306268e-02       4.690486148842e+02 
       4.349930333937e-02       4.664366946463e+02 
       4.373114607684e-02       4.638224412962e+02 
       4.396641803108e-02       4.612089613741e+02 
       4.420528657961e-02       4.585950178758e+02 
       4.444793068082e-02       4.559793047735e+02 
       4.469454194227e-02       4.533620998918e+02 
       4.494532581288e-02       4.507417893642e+02 
       4.520050291638e-02       4.481207623136e+02 
       4.546031054620e-02       4.454946274357e+02 
       4.572500434546e-02       4.428651827169e+02 
       4.599486019958e-02       4.402299955199e+02 
       4.627017637418e-02       4.375901393724e+02 
       4.655127593643e-02       4.349446181073e+02 
       4.683850950528e-02       4.322933969157e+02 
       4.713225838436e-02       4.296328480224e+02 
       4.743293814168e-02       4.269641491377e+02 
       4.774100271297e-02       4.242857976386e+02 
       4.805694912064e-02       4.215962865000e+02 
       4.838132291952e-02       4.188955828628e+02 
       4.871472450393e-02       4.161826474294e+02 
       4.905781643925e-02       4.134523118688e+02 
       4.941133201783e-02       4.107076676187e+02 
       4.977608528353e-02       4.079443650041e+02 
       5.015298282618e-02       4.051618209400e+02 
       5.054303771845e-02       4.023562898739e+02 
       5.094738605757e-02       3.995260993633e+02 
       5.136730668884e-02       3.966698734289e+02 
       5.180424483333e-02       3.937839377811e+02 
       5.225984052739e-02       3.908632097505e+02 
       5.273596301788e-02       3.879058907076e+02 
       5.323475255774e-02       3.849053080169e+02 
       5.375867142783e-02       3.818568063554e+02 
       5.431056648953e-02       3.787533609414e+02 
       5.489374616450e-02       3.755882645689e+02 
       5.551207544877e-02       3.723523438829e+02 
       5.617009337761e-02       3.690330325537e+02 
       5.687315818582e-02       3.656164698459e+02 
       5.762762604582e-02       3.620843352745e+02 
       5.844106924229e-02       3.584152478654e+02 
       5.932253797381e-02       3.545794163211e+02 
       6.028286471725e-02       3.505388621123e+02 
       6.133499760901e-02       3.462440158874e+02 
       6.249432323971e-02       3.416290014010e+02 
       6.377888977286e-02       3.366064826918e+02 
       6.520935658723e-02       3.310595178296e+02 
