# dimensionless total lensed [l(l+1)/2pi] C_l's
# for l=2 to 2500, i.e. number of multipoles equal to 2499
#
# -> if you prefer output in CAMB/HealPix/LensPix units/order, set 'format' to 'camb' in input file
# -> if you don't want to see such a header, set 'headers' to 'no' in input file
# -> for CMB lensing (phi), these are C_l^phi-phi for the lensing potential.
#    Remember the conversion factors:
#    C_l^dd (deflection) = l(l+1) C_l^phi-phi
#    C_l^gg (shear/convergence) = 1/4 (l(l+1))^2 C_l^phi-phi
#
# 1:l     2:TT                     3:EE                     4:TE                     5:BB                     6:phiphi                 7:TPhi                   8:Ephi               
    2       1.353788256923e-10       4.918857616185e-15       3.779615402808e-13       1.922224958507e-19       8.119705106654e-09       4.408164257069e-10      -1.993621323968e-12 
    3       1.284939587053e-10       7.131684994590e-15       4.456396463084e-13       3.845393323523e-19       4.986875093958e-09       3.126152948341e-10      -1.621453991323e-12 
    4       1.217313625842e-10       7.040281193158e-15       4.349825352181e-13       6.411066367184e-19       3.457059846043e-09       2.366340982690e-10      -1.168459559457e-12 
    5       1.165531766194e-10       5.403208298396e-15       3.854592496631e-13       9.620449694645e-19       2.573185470363e-09       1.867716811561e-10      -7.523256362216e-13 
    6       1.129412127538e-10       3.420060632463e-15       3.216570442784e-13       1.347500650438e-18       2.005008692450e-09       1.517638771335e-10      -4.118039542556e-13 
    7       1.105581698037e-10       1.914244223459e-15       2.590312489575e-13       1.797643022258e-18       1.613791564269e-09       1.260090339473e-10      -1.603792578628e-13 
    8       1.091537549405e-10       1.099135466685e-15       2.057005251690e-13       2.312661342662e-18       1.330928299885e-09       1.064444930554e-10       3.483375235160e-15 
    9       1.084976686796e-10       7.832551231924e-16       1.652032651091e-13       2.892761392348e-18       1.118555082178e-09       9.124801330230e-11       9.084357450320e-14 
   10       1.083685685224e-10       6.805079894000e-16       1.381824425337e-13       3.538161891823e-18       9.542379645358e-10       7.921080718294e-11       1.185484001896e-13 
   11       1.086972751956e-10       6.082085724999e-16       1.232787041544e-13       4.249090824743e-18       8.050659384232e-10       6.988489679556e-11       1.057909804322e-13 
   12       1.093372870623e-10       5.211692929314e-16       1.179678987435e-13       5.025781766125e-18       7.022283238700e-10       6.164326644334e-11       7.117838946814e-14 
   13       1.102342578326e-10       4.470458121254e-16       1.194163372883e-13       5.868470311552e-18       6.179030428655e-10       5.499191843975e-11       3.027642337146e-14 
   14       1.113302552860e-10       4.140190820189e-16       1.249750368099e-13       6.777390698331e-18       5.478255172354e-10       4.923203231979e-11      -6.393892708005e-15 
   15       1.126205599915e-10       4.212381741327e-16       1.325454199762e-13       7.752772701521e-18       4.889053396133e-10       4.440959784444e-11      -3.206511007357e-14 
   16       1.140206181907e-10       4.494931762031e-16       1.406941772549e-13       8.794838877227e-18       4.388666962821e-10       4.026511272943e-11      -4.470765010695e-14 
   17       1.155611761969e-10       4.836833073318e-16       1.485356414347e-13       9.903802212909e-18       3.959911254405e-10       3.664955603981e-11      -4.562305251729e-14 
   18       1.171778318910e-10       5.238960958559e-16       1.558312103681e-13       1.107986405854e-17       3.588203198875e-10       3.349282120800e-11      -3.832216018825e-14 
   19       1.188806054326e-10       5.789890821028e-16       1.627480764058e-13       1.232321356913e-17       3.267513847560e-10       3.074766344767e-11      -2.649585666149e-14 
   20       1.206631268638e-10       6.593521919101e-16       1.695879276939e-13       1.363402486838e-17       2.985385091476e-10       2.830317266953e-11      -1.452486439792e-14 
   21       1.225267602203e-10       7.664352846889e-16       1.766646695897e-13       1.501245934559e-17       2.737308099316e-10       2.611919052986e-11      -4.944620601863e-15 
   22       1.244455657779e-10       8.976803020254e-16       1.842735567638e-13       1.645866256853e-17       2.517271899579e-10       2.414753012764e-11       4.272530915784e-16 
   23       1.264238981430e-10       1.050567108171e-15       1.924431874663e-13       1.797276826317e-17       2.322197330739e-10       2.238389875872e-11       1.449635325465e-15 
   24       1.284549013927e-10       1.222425527709e-15       2.010443456645e-13       1.955489517286e-17       2.147522130613e-10       2.081530622331e-11      -1.116510816982e-15 
   25       1.305391164357e-10       1.413904731583e-15       2.097915668153e-13       2.120515310905e-17       1.991151749094e-10       1.942110484037e-11      -5.879707418139e-15 
   26       1.326645057275e-10       1.626243500897e-15       2.182830607049e-13       2.292363905703e-17       1.850216070915e-10       1.816384035912e-11      -1.103951851148e-14 
   27       1.348286928914e-10       1.858426492475e-15       2.261091368286e-13       2.471044324724e-17       1.722993581169e-10       1.702384355910e-11      -1.530626107212e-14 
   28       1.370236487609e-10       2.108942165550e-15       2.328633378124e-13       2.656564665232e-17       1.607260089875e-10       1.597954768889e-11      -1.761472052033e-14 
   29       1.392584819993e-10       2.378939753970e-15       2.384076663407e-13       2.848933166060e-17       1.502404721159e-10       1.502722965947e-11      -1.789160484417e-14 
   30       1.415364298395e-10       2.670641205476e-15       2.426988130847e-13       3.048157355037e-17       1.407281513703e-10       1.415989687447e-11      -1.647528398643e-14 
   31       1.438503801683e-10       2.986445487524e-15       2.457233920596e-13       3.254244102410e-17       1.319925687488e-10       1.336263509482e-11      -1.387066227713e-14 
   32       1.462030924688e-10       3.328059825887e-15       2.475215426542e-13       3.467201095765e-17       1.239871998636e-10       1.262862696865e-11      -1.071677131052e-14 
   33       1.485919184737e-10       3.697062461609e-15       2.481769333176e-13       3.687035920683e-17       1.166541310453e-10       1.194754244738e-11      -7.832556836437e-15 
   34       1.510074235113e-10       4.094932456537e-15       2.477900373986e-13       3.913755966438e-17       1.098891842000e-10       1.130600233338e-11      -6.025674666713e-15 
   35       1.534516557194e-10       4.522355359510e-15       2.463961736304e-13       4.147369378937e-17       1.036567387654e-10       1.070643315620e-11      -5.348147149594e-15 
   36       1.559245666888e-10       4.979658632829e-15       2.440208038810e-13       4.387884495722e-17       9.790579500377e-11       1.015410627543e-11      -5.578205324197e-15 
   37       1.584219409383e-10       5.467114596750e-15       2.406714392493e-13       4.635309696703e-17       9.256034565967e-11       9.651301235799e-12      -6.430747539347e-15 
   38       1.609477706212e-10       5.985401750291e-15       2.362337431038e-13       4.889653620364e-17       8.760594052702e-11       9.195263116863e-12      -7.629327628138e-15 
   39       1.635048455185e-10       6.535284272700e-15       2.305392698741e-13       5.150925090262e-17       8.302629112328e-11       8.779047838794e-12      -8.848877920317e-15 
   40       1.660907301161e-10       7.117484858997e-15       2.233907604822e-13       5.419133113170e-17       7.877695855687e-11       8.391653312987e-12      -9.690397901629e-15 
   41       1.687004350440e-10       7.732676042444e-15       2.146030379242e-13       5.694286656054e-17       7.480069274385e-11       8.021325781149e-12      -9.795240101517e-15 
   42       1.713368119525e-10       8.381457655318e-15       2.041464088649e-13       5.976393784351e-17       7.108534701576e-11       7.667552989651e-12      -9.243949459312e-15 
   43       1.740026080385e-10       9.064367206137e-15       1.920466508088e-13       6.265462316936e-17       6.762069168912e-11       7.332429295856e-12      -8.279391879234e-15 
   44       1.766972041730e-10       9.781881850973e-15       1.783471603520e-13       6.561500093774e-17       6.438104594791e-11       7.017288592919e-12      -7.202439996844e-15 
   45       1.794181769805e-10       1.053442919668e-14       1.630970450189e-13       6.864514403776e-17       6.133435408283e-11       6.722662775277e-12      -6.308393727535e-15 
   46       1.821673287056e-10       1.132243128362e-14       1.463088117317e-13       7.174510004712e-17       5.847554258764e-11       6.448318300563e-12      -5.665311295834e-15 
   47       1.849458921343e-10       1.214626817819e-14       1.279897192218e-13       7.491490554420e-17       5.580104746761e-11       6.193103532671e-12      -5.275373402448e-15 
   48       1.877525723207e-10       1.300626263266e-14       1.081538259256e-13       7.815459148052e-17       5.329875859742e-11       5.954845671882e-12      -5.135868976336e-15 
   49       1.905833219193e-10       1.390267761928e-14       8.682224067387e-14       8.146418308991e-17       5.094738560944e-11       5.730277988198e-12      -5.238838562083e-15 
   50       1.934334951314e-10       1.483573801625e-14       6.400894641111e-14       8.484369450024e-17       4.872281808551e-11       5.515933777449e-12      -5.563796289103e-15 
   51       1.963055200410e-10       1.580570832590e-14       3.967315334285e-14       8.829311105455e-17       4.662071253290e-11       5.311283114250e-12      -6.054394150687e-15 
   52       1.992029204943e-10       1.681283178988e-14       1.375444592159e-14       9.181240203431e-17       4.463894028657e-11       5.116321753530e-12      -6.634807080501e-15 
   53       2.021280094431e-10       1.785730678340e-14      -1.381433862088e-14       9.540152520555e-17       4.277083132475e-11       4.930652197102e-12      -7.215434616567e-15 
   54       2.050817762106e-10       1.893928548597e-14      -4.310753849989e-14       9.906042647884e-17       4.100486930088e-11       4.753456419832e-12      -7.692218574840e-15 
   55       2.080644680908e-10       2.005885577348e-14      -7.419296699066e-14       1.027890416396e-16       3.932817155726e-11       4.583812178760e-12      -7.974287634694e-15 
   56       2.110777626016e-10       2.121598467200e-14      -1.070858446717e-13       1.065873028217e-16       3.773864018784e-11       4.421796439539e-12      -8.076496304411e-15 
   57       2.141229374038e-10       2.241055852834e-14      -1.417841730339e-13       1.104551330464e-16       3.623529538479e-11       4.267608292554e-12      -8.048679473036e-15 
   58       2.172001394307e-10       2.364239661813e-14      -1.782817408428e-13       1.143924440390e-16       3.481460085361e-11       4.121235801017e-12      -7.949751774710e-15 
   59       2.203082992065e-10       2.491124916281e-14      -2.165680018997e-13       1.183991359695e-16       3.347030631190e-11       3.982442113488e-12      -7.848128908167e-15 
   60       2.234450451641e-10       2.621679534667e-14      -2.566279528023e-13       1.224750971934e-16       3.219328998809e-11       3.850751576387e-12      -7.822148956223e-15 
   61       2.266078300486e-10       2.755867453950e-14      -2.984450225315e-13       1.266202176165e-16       3.097407224929e-11       3.725600492338e-12      -7.940362504100e-15 
   62       2.297977994136e-10       2.893659264032e-14      -3.420107756761e-13       1.308344328834e-16       2.981137211103e-11       3.606860355936e-12      -8.196280040324e-15 
   63       2.330166433582e-10       3.035023619345e-14      -3.873171801973e-13       1.351176896923e-16       2.870520057982e-11       3.494407954773e-12      -8.559658891884e-15 
   64       2.362654147765e-10       3.179924037815e-14      -4.343537616464e-13       1.394699332155e-16       2.765428769420e-11       3.387962595459e-12      -8.995128855738e-15 
   65       2.395444821349e-10       3.328318807923e-14      -4.831075764877e-13       1.438911072719e-16       2.665600977638e-11       3.287077440234e-12      -9.461974770518e-15 
   66       2.428534822482e-10       3.480160895765e-14      -5.335631854231e-13       1.483811545006e-16       2.570631668390e-11       3.191130843565e-12      -9.913919088236e-15 
   67       2.461912730568e-10       3.635397852110e-14      -5.857026267160e-13       1.529400165328e-16       2.479965906134e-11       3.099317688754e-12      -1.029890444598e-14 
   68       2.495566283566e-10       3.793967307289e-14      -6.395065597324e-13       1.575676506156e-16       2.393045942590e-11       3.010853204773e-12      -1.057070536100e-14 
   69       2.529505910149e-10       3.955782603562e-14      -6.949580242629e-13       1.622640830047e-16       2.309803417589e-11       2.925651738911e-12      -1.072698149558e-14 
   70       2.563745139348e-10       4.120744071151e-14      -7.520393985164e-13       1.670293667502e-16       2.230254280485e-11       2.843770589965e-12      -1.077857981503e-14 
   71       2.598293325498e-10       4.288742980737e-14      -8.107312994949e-13       1.718635667876e-16       2.154349964312e-11       2.765206526019e-12      -1.073847127514e-14 
   72       2.633155365763e-10       4.459661337673e-14      -8.710125862463e-13       1.767667605307e-16       2.081974059371e-11       2.689892555325e-12      -1.062183592907e-14 
   73       2.668331417660e-10       4.633371676200e-14      -9.328603631173e-13       1.817390384655e-16       2.012938986823e-11       2.617694697181e-12      -1.044614803409e-14 
   74       2.703816616587e-10       4.809736853670e-14      -9.962499830059e-13       1.867805047439e-16       1.946982672282e-11       2.548408752818e-12      -1.023126115850e-14 
   75       2.739600793344e-10       4.988609844753e-14      -1.061155050614e-12       1.918912777772e-16       1.883765219404e-11       2.481757076277e-12      -9.999493288393e-15 
   76       2.775673747896e-10       5.169845093348e-14      -1.127546646181e-12       1.970714907193e-16       1.822952690258e-11       2.417462046482e-12      -9.771377363858e-15 
   77       2.812042805342e-10       5.353335413042e-14      -1.195390826062e-12       2.023212917065e-16       1.764493437513e-11       2.355489089318e-12      -9.551830132569e-15 
   78       2.848717963034e-10       5.538981473025e-14      -1.264650670160e-12       2.076408447400e-16       1.708386353461e-11       2.295842311038e-12      -9.341604023805e-15 
   79       2.885706452538e-10       5.726680868063e-14      -1.335287008486e-12       2.130303303819e-16       1.654596718280e-11       2.238490099039e-12      -9.141394250961e-15 
   80       2.923012571098e-10       5.916328149719e-14      -1.407258408426e-12       2.184899463470e-16       1.603054659827e-11       2.183363465562e-12      -8.951835034494e-15 
   81       2.960637513092e-10       6.107814857568e-14      -1.480521162010e-12       2.240199080936e-16       1.553653613416e-11       2.130354391394e-12      -8.773495824871e-15 
   82       2.998579201492e-10       6.301029550413e-14      -1.555029273181e-12       2.296204494153e-16       1.506248781614e-11       2.079314169571e-12      -8.606877525513e-15 
   83       3.036832119330e-10       6.495857837503e-14      -1.630734445060e-12       2.352918230320e-16       1.460655594019e-11       2.030051749076e-12      -8.452408715740e-15 
   84       3.075390255703e-10       6.692177249757e-14      -1.707587289536e-12       2.410342879627e-16       1.416694215799e-11       1.982381045001e-12      -8.310296982221e-15 
   85       3.114256874145e-10       6.889840808169e-14      -1.785541214314e-12       2.468480679427e-16       1.374334924902e-11       1.936275508554e-12      -8.180062869036e-15 
   86       3.153436062167e-10       7.088690775960e-14      -1.864549159908e-12       2.527333871649e-16       1.333574123458e-11       1.891736263887e-12      -8.060921382137e-15 
   87       3.192929646203e-10       7.288563521687e-14      -1.944562442314e-12       2.586904832497e-16       1.294389676845e-11       1.848744598886e-12      -7.951913890808e-15 
   88       3.232737075421e-10       7.489289463733e-14      -2.025530760820e-12       2.647196076136e-16       1.256740147408e-11       1.807261131847e-12      -7.851901915459e-15 
   89       3.272855305521e-10       7.690693014803e-14      -2.107402205816e-12       2.708210258389e-16       1.220564028170e-11       1.767224978139e-12      -7.759560915421e-15 
   90       3.313278682546e-10       7.892592526418e-14      -2.190123266606e-12       2.769950180429e-16       1.185778976550e-11       1.728552916870e-12      -7.673374076740e-15 
   91       3.353998826686e-10       8.094800233406e-14      -2.273638839221e-12       2.832418792467e-16       1.152281048079e-11       1.691138557556e-12      -7.591626099973e-15 
   92       3.395004516084e-10       8.297122198399e-14      -2.357892234227e-12       2.895619197446e-16       1.119943930109e-11       1.654851506790e-12      -7.512396987985e-15 
   93       3.436285059909e-10       8.499365236437e-14      -2.442825763011e-12       2.959554668666e-16       1.088648703735e-11       1.619569773317e-12      -7.433974693208e-15 
   94       3.477841250271e-10       8.701359000670e-14      -2.528382580536e-12       3.024228697661e-16       1.058379914271e-11       1.585284368379e-12      -7.356177545699e-15 
   95       3.519675850305e-10       8.902937131179e-14      -2.614505135468e-12       3.089644960381e-16       1.029142600225e-11       1.552008969723e-12      -7.279220158069e-15 
   96       3.561790184293e-10       9.103930610601e-14      -2.701134631936e-12       3.155807307733e-16       1.000932709958e-11       1.519747712910e-12      -7.203311831413e-15 
   97       3.604184069358e-10       9.304167804438e-14      -2.788211045287e-12       3.222719769465e-16       9.737367544572e-12       1.488494814244e-12      -7.128656092715e-15 
   98       3.646855747173e-10       9.503474501365e-14      -2.875673137839e-12       3.290386558049e-16       9.475314601017e-12       1.458234193690e-12      -7.055450232258e-15 
   99       3.689801815660e-10       9.701673953542e-14      -2.963458474629e-12       3.358812072564e-16       9.222834214376e-12       1.428939097808e-12      -6.983884841038e-15 
  100       3.733017160692e-10       9.898586916916e-14      -3.051503439164e-12       3.428000902577e-16       8.979487539466e-12       1.400571722674e-12      -6.914143348170e-15 
  101       3.776494887798e-10       1.009403169154e-13      -3.139743249181e-12       3.497957832032e-16       8.744727468166e-12       1.373082836803e-12      -6.846401558301e-15 
  102       3.820226253861e-10       1.028782416186e-13      -3.228111972387e-12       3.568687843125e-16       8.517895157131e-12       1.346411404080e-12      -6.780827189018e-15 
  103       3.864200598824e-10       1.047977783706e-13      -3.316542542222e-12       3.640196120194e-16       8.298216555491e-12       1.320484206681e-12      -6.717579408261e-15 
  104       3.908407606456e-10       1.066970746852e-13      -3.404967301504e-12       3.712488068462e-16       8.084976771517e-12       1.295233217394e-12      -6.656758167487e-15 
  105       3.952844581580e-10       1.085744037198e-13      -3.493319683103e-12       3.785569364805e-16       7.878077477020e-12       1.270651201390e-12      -6.598245402627e-15 
  106       3.997510033139e-10       1.104280671715e-13      -3.581532786729e-12       3.859445921110e-16       7.677548677344e-12       1.246742957435e-12      -6.541841419431e-15 
  107       4.042401390733e-10       1.122563616569e-13      -3.669538892592e-12       3.934123874030e-16       7.483376096638e-12       1.223508059379e-12      -6.487312180079e-15 
