# Matter power spectrum P(k) at redshift z=5.5
# for k=1.05459e-05 to 1007.8 h/Mpc,
# number of wavenumbers equal to 624
#    1:k (h/Mpc)              2:P (Mpc/h)^3        
       1.054587662383e-05       1.651735961864e+00 
       2.395760700461e-05       3.702169022721e+00 
       3.741949231070e-05       5.736999644051e+00 
       5.097080407504e-05       7.770124307979e+00 
       6.465150826923e-05       9.811052873918e+00 
       7.850265151649e-05       1.186784121184e+01 
       9.256676051055e-05       1.394797226207e+01 
       1.068882603665e-04       1.605874812154e+01 
       1.215139176705e-04       1.820751356483e+01 
       1.364933140282e-04       2.040180966751e+01 
       1.518793559007e-04       2.264949556598e+01 
       1.677288263856e-04       2.495885580056e+01 
       1.841029842806e-04       2.733870172454e+01 
       2.010682151256e-04       2.979847215477e+01 
       2.186967378032e-04       3.234833554724e+01 
       2.370673684701e-04       3.499929479007e+01 
       2.562663408111e-04       3.776329618536e+01 
       2.763881774971e-04       4.065334021425e+01 
       2.975366018308e-04       4.368359348663e+01 
       3.198254703706e-04       4.686949843380e+01 
       3.433796962236e-04       5.022787482678e+01 
       3.683361181409e-04       5.377700702468e+01 
       3.948442520610e-04       5.753670679452e+01 
       4.230668392529e-04       6.152833656002e+01 
       4.531800792723e-04       6.577477983103e+01 
       4.853734083030e-04       7.030033407137e+01 
       5.198486575588e-04       7.513050535654e+01 
       5.568184080411e-04       8.029167860129e+01 
       5.965033555038e-04       8.581063661962e+01 
       6.391285237414e-04       9.171391413891e+01 
       6.849182269121e-04       9.802697205067e+01 
       7.340897917152e-04       1.047732083388e+02 
       7.868462095924e-04       1.119728373967e+02 
       8.433680859967e-04       1.196417064479e+02 
       9.038054586522e-04       1.277901430582e+02 
       9.682702230937e-04       1.364219481158e+02 
       1.036829977312e-03       1.455336648503e+02 
       1.109504033623e-03       1.551142237454e+02 
       1.186262131037e-03       1.651450312232e+02 
       1.267026045480e-03       1.756005176640e+02 
       1.351673909154e-03       1.864490879596e+02 
       1.440046703627e-03       1.976543651690e+02 
       1.531956161098e-03       2.091766118548e+02 
       1.627193233137e-03       2.209741552004e+02 
       1.725536357866e-03       2.330047228051e+02 
       1.826758931240e-03       2.452265925302e+02 
       1.930635607428e-03       2.575994942652e+02 
       2.036947265403e-03       2.700852812678e+02 
       2.145484649649e-03       2.826483558126e+02 
       2.256050808962e-03       2.952558264434e+02 
       2.368462520340e-03       3.078774691444e+02 
       2.482550905970e-03       3.204865802089e+02 
       2.598161443598e-03       3.330588435393e+02 
       2.715153546563e-03       3.455725848276e+02 
       2.833399858872e-03       3.580085308197e+02 
       2.952785379160e-03       3.703497665974e+02 
       3.073206498732e-03       3.825813851625e+02 
       3.194570014728e-03       3.946904424541e+02 
       3.316792160165e-03       4.066657400111e+02 
       3.439797677790e-03       4.184976006679e+02 
       3.563518953785e-03       4.301778473951e+02 
       3.687895219483e-03       4.416994318723e+02 
       3.812871823923e-03       4.530565289552e+02 
       3.938399576414e-03       4.642442353435e+02 
       4.064434156076e-03       4.752585098297e+02 
       4.190935583973e-03       4.860960988237e+02 
       4.317867752807e-03       4.967543914047e+02 
       4.445198008897e-03       5.072314397317e+02 
       4.572896781262e-03       5.175257114923e+02 
       4.700937252832e-03       5.276362755033e+02 
       4.829295069163e-03       5.375624980059e+02 
       4.957948080421e-03       5.473043392912e+02 
       5.086876112798e-03       5.568616932755e+02 
       5.216060765905e-03       5.662351439325e+02 
       5.345485233097e-03       5.754254114463e+02 
       5.475134141982e-03       5.844332239284e+02 
       5.604993412735e-03       5.932598397535e+02 
       5.735050132083e-03       6.019065361650e+02 
       5.865292441105e-03       6.103745748533e+02 
       5.995709435225e-03       6.186656616704e+02 
       6.126291074934e-03       6.267812305567e+02 
       6.257028106021e-03       6.347230369700e+02 
       6.387911988181e-03       6.424930287075e+02 
       6.518934831047e-03       6.500928749124e+02 
       6.650089336797e-03       6.575245396538e+02 
       6.781368748589e-03       6.647899581837e+02 
       6.912766804167e-03       6.718909772650e+02 
       7.044277694073e-03       6.788299268682e+02 
       7.175896023947e-03       6.856087734424e+02 
       7.307616780480e-03       6.922294143901e+02 
       7.439435300621e-03       6.986939512529e+02 
       7.571347243688e-03       7.050045915952e+02 
       7.703348566092e-03       7.111629681476e+02 
       7.835435498379e-03       7.171714839747e+02 
       7.967604524376e-03       7.230323912816e+02 
       8.099852362201e-03       7.287472258471e+02 
       8.232175946977e-03       7.343178996756e+02 
       8.364572415055e-03       7.397470746275e+02 
       8.497039089610e-03       7.450361075803e+02 
       8.629573467480e-03       7.501870544098e+02 
       8.762173207120e-03       7.552019276612e+02 
       8.894836117563e-03       7.600830466065e+02 
       9.027560148310e-03       7.648318498266e+02 
       9.160343380039e-03       7.694502225502e+02 
       9.293184016077e-03       7.739400425603e+02 
       9.426080374557e-03       7.783033263065e+02 
       9.559030881197e-03       7.825416986698e+02 
       9.692034062657e-03       7.866570328006e+02 
       9.825088540402e-03       7.906509017276e+02 
       9.958193025054e-03       7.945253613640e+02 
       1.009134631117e-02       7.982817328212e+02 
       1.022454727240e-02       8.019220788696e+02 
       1.035779485708e-02       8.054478471144e+02 
       1.049108808403e-02       8.088605072221e+02 
       1.062442603880e-02       8.121621141699e+02 
       1.075780787008e-02       8.153538694349e+02 
       1.089123278647e-02       8.184373099148e+02 
       1.102470005340e-02       8.214143387126e+02 
       1.115820899032e-02       8.242862287048e+02 
       1.129175896808e-02       8.270544293007e+02 
       1.142534940653e-02       8.297221631879e+02 
       1.155897977221e-02       8.322878170943e+02 
       1.169264957627e-02       8.347544146333e+02 
       1.182635837256e-02       8.371231243992e+02 
       1.196010575577e-02       8.393954234500e+02 
       1.209389135976e-02       8.415724772315e+02 
       1.222771485602e-02       8.436560121150e+02 
       1.236157595218e-02       8.456472049587e+02 
       1.249547439069e-02       8.475470882307e+02 
       1.262940994755e-02       8.493573941632e+02 
       1.276338243113e-02       8.510790548056e+02 
       1.289739168112e-02       8.527134252189e+02 
       1.303143756752e-02       8.542621554984e+02 
       1.316551998968e-02       8.557257466596e+02 
       1.329963887547e-02       8.571058414783e+02 
       1.343379418048e-02       8.584037878220e+02 
       1.356798588725e-02       8.596202281803e+02 
       1.370221400463e-02       8.607572269448e+02 
       1.383647856714e-02       8.618151597745e+02 
       1.397077963436e-02       8.627952927839e+02 
       1.410511729045e-02       8.636991243624e+02 
       1.423949164364e-02       8.645272420311e+02 
       1.437390282580e-02       8.652816928132e+02 
       1.450835099199e-02       8.659625226494e+02 
       1.464283632018e-02       8.665712149271e+02 
       1.477735901085e-02       8.671085961750e+02 
       1.491191928672e-02       8.675757858640e+02 
       1.504651739250e-02       8.679743634439e+02 
       1.518115359463e-02       8.683049094066e+02 
       1.531582818112e-02       8.685683884953e+02 
       1.545054146135e-02       8.687663281652e+02 
       1.558529376592e-02       8.688987620785e+02 
       1.572008544657e-02       8.689676670805e+02 
       1.585491687604e-02       8.689735447415e+02 
       1.598978844802e-02       8.689174876716e+02 
       1.612470057713e-02       8.688002939872e+02 
       1.625965369884e-02       8.686230747912e+02 
       1.639464826954e-02       8.683867735982e+02 
       1.652968476650e-02       8.680923681569e+02 
       1.666476368793e-02       8.677405456942e+02 
       1.679988555307e-02       8.673321669979e+02 
       1.693505090223e-02       8.668686256161e+02 
       1.707026029690e-02       8.663508655897e+02 
       1.720551431989e-02       8.657790023937e+02 
       1.734081357544e-02       8.651546281907e+02 
       1.747615868939e-02       8.644780208044e+02 
       1.761155030937e-02       8.637502869751e+02 
       1.774698910494e-02       8.629723374960e+02 
       1.788247576786e-02       8.621452724914e+02 
       1.801801101224e-02       8.612693786536e+02 
       1.815359557488e-02       8.603456974202e+02 
       1.828923021544e-02       8.593757447867e+02 
       1.842491571677e-02       8.583586585614e+02 
       1.856065288516e-02       8.572973471461e+02 
       1.869644255071e-02       8.561910017503e+02 
       1.883228556761e-02       8.550405214153e+02 
       1.896818281447e-02       8.538473673247e+02 
       1.910413519474e-02       8.526117724345e+02 
       1.924014363703e-02       8.513345865048e+02 
       1.937620909555e-02       8.500170268993e+02 
       1.951233255048e-02       8.486590687739e+02 
       1.964851500844e-02       8.472614705826e+02 
       1.978475750288e-02       8.458259752808e+02 
       1.992106109463e-02       8.443522131238e+02 
       2.005742687230e-02       8.428412696877e+02 
       2.019385595284e-02       8.412940968507e+02 
       2.033034948201e-02       8.397102788491e+02 
       2.046690863496e-02       8.380930500000e+02 
       2.060353461679e-02       8.364391134211e+02 
       2.074022866307e-02       8.347524910808e+02 
       2.087699204052e-02       8.330331341649e+02 
       2.101382604757e-02       8.312812890447e+02 
       2.115073201501e-02       8.294968934534e+02 
       2.128771130666e-02       8.276820472564e+02 
       2.142476532007e-02       8.258360009790e+02 
       2.156189548716e-02       8.239600144271e+02 
       2.169910327504e-02       8.220552211616e+02 
       2.183639018667e-02       8.201204569045e+02 
       2.197375776170e-02       8.181590176612e+02 
       2.211120757723e-02       8.161701276945e+02 
       2.224874124866e-02       8.141535063728e+02 
       2.238636043052e-02       8.121108324505e+02 
       2.252406681738e-02       8.100426192245e+02 
       2.266186214469e-02       8.079493964310e+02 
       2.279974818980e-02       8.058315876854e+02 
       2.293772677283e-02       8.036882782366e+02 
       2.307579975775e-02       8.015240742999e+02 
       2.321396905334e-02       7.993352722438e+02 
       2.335223661426e-02       7.971255845182e+02 
       2.349060444215e-02       7.948926842424e+02 
       2.362907458674e-02       7.926404529120e+02 
       2.376764914702e-02       7.903662182777e+02 
       2.390633027240e-02       7.880713164147e+02 
       2.404512016397e-02       7.857594853930e+02 
       2.418402107576e-02       7.834255712890e+02 
       2.432303531605e-02       7.810752506735e+02 
       2.446216524869e-02       7.787046831247e+02 
       2.460141329453e-02       7.763168932317e+02 
       2.474078193285e-02       7.739134310435e+02 
       2.488027370280e-02       7.714932502720e+02 
       2.501989120497e-02       7.690572834213e+02 
       2.515963710296e-02       7.666044994547e+02 
       2.529951412499e-02       7.641354435488e+02 
       2.543952506557e-02       7.616544728389e+02 
       2.557967278729e-02       7.591578741857e+02 
       2.571996022254e-02       7.566480694326e+02 
       2.586039037538e-02       7.541251982002e+02 
       2.600096632349e-02       7.515886261221e+02 
       2.614169122007e-02       7.490399200473e+02 
       2.628256829594e-02       7.464801395074e+02 
       2.642360086160e-02       7.439081948484e+02 
       2.656479230944e-02       7.413253842703e+02 
       2.670614611595e-02       7.387312673348e+02 
       2.684766584408e-02       7.361275785037e+02 
       2.698935514561e-02       7.335142859591e+02 
       2.713121776367e-02       7.308844688460e+02 
       2.727325753527e-02       7.282583000537e+02 
       2.741547839400e-02       7.256162698442e+02 
       2.755788437276e-02       7.229676728862e+02 
       2.770047960660e-02       7.203097251951e+02 
       2.784326833570e-02       7.176456345686e+02 
       2.798625490840e-02       7.149732901961e+02 
       2.812944378436e-02       7.122922828025e+02 
       2.827283953786e-02       7.096067617215e+02 
       2.841644686117e-02       7.069152645638e+02 
       2.856027056810e-02       7.042162310435e+02 
       2.870431559761e-02       7.015130156634e+02 
       2.884858701765e-02       6.988039943048e+02 
       2.899309002902e-02       6.960900321838e+02 
       2.913782996949e-02       6.933728330228e+02 
       2.928281231802e-02       6.906507603214e+02 
       2.942804269914e-02       6.879228880091e+02 
       2.957352688749e-02       6.851937418985e+02 
       2.971927081260e-02       6.824586092080e+02 
       2.986528056376e-02       6.797238721361e+02 
       3.001156239516e-02       6.769838426501e+02 
       3.015812273119e-02       6.742417181147e+02 
       3.030496817197e-02       6.714978714257e+02 
       3.045210549909e-02       6.687514372380e+02 
       3.059954168162e-02       6.660029460410e+02 
       3.074728388228e-02       6.632527823364e+02 
       3.089533946398e-02       6.605011514142e+02 
       3.104371599653e-02       6.577485087173e+02 
       3.119242126369e-02       6.549959617886e+02 
       3.134146327051e-02       6.522412836208e+02 
       3.149085025095e-02       6.494854916186e+02 
       3.164059067589e-02       6.467329995525e+02 
       3.179069326138e-02       6.439783385626e+02 
       3.194116697741e-02       6.412237499343e+02 
       3.209202105689e-02       6.384700304273e+02 
       3.224326500520e-02       6.357165276148e+02 
       3.239490860999e-02       6.329650461118e+02 
       3.254696195161e-02       6.302129594361e+02 
       3.269943541387e-02       6.274643383675e+02 
       3.285233969536e-02       6.247131067724e+02 
       3.300568582133e-02       6.219663542331e+02 
       3.315948515602e-02       6.192214860649e+02 
       3.331374941570e-02       6.164780022945e+02 
       3.346849068227e-02       6.137369584025e+02 
       3.362372141749e-02       6.109969121686e+02 
       3.377945447800e-02       6.082606889050e+02 
       3.393570313096e-02       6.055242249542e+02 
       3.409248107059e-02       6.027924986374e+02 
       3.424980243545e-02       6.000623829814e+02 
       3.440768182662e-02       5.973351018403e+02 
       3.456613432688e-02       5.946132614992e+02 
       3.472517552076e-02       5.918905517385e+02 
       3.488482151577e-02       5.891739220644e+02 
       3.504508896467e-02       5.864593458134e+02 
       3.520599508896e-02       5.837468802471e+02 
       3.536755770364e-02       5.810406432155e+02 
       3.552979524329e-02       5.783365770231e+02 
       3.569272678970e-02       5.756360421157e+02 
       3.585637210089e-02       5.729389517094e+02 
       3.602075164186e-02       5.702470753986e+02 
       3.618588661713e-02       5.675571780016e+02 
       3.635179900506e-02       5.648715617568e+02 
       3.651851159422e-02       5.621910533232e+02 
       3.668604802199e-02       5.595113681558e+02 
       3.685443281532e-02       5.568383059621e+02 
       3.702369143405e-02       5.541699220855e+02 
       3.719385031690e-02       5.515051752009e+02 
       3.736493693021e-02       5.488422518761e+02 
       3.753697981988e-02       5.461854510702e+02 
       3.771000866645e-02       5.435317056045e+02 
       3.788405434385e-02       5.408835895370e+02 
       3.805914898192e-02       5.382384356898e+02 
       3.823532603303e-02       5.355985002852e+02 
       3.841262034320e-02       5.329608455694e+02 
       3.859106822800e-02       5.303274492345e+02 
       3.877070755366e-02       5.276990701350e+02 
       3.895157782381e-02       5.250740379023e+02 
       3.913372027237e-02       5.224526763497e+02 
       3.931717796296e-02       5.198360445946e+02 
       3.950199589564e-02       5.172229479347e+02 
       3.968822112142e-02       5.146133213994e+02 
       3.987590286525e-02       5.120078102867e+02 
       4.006509265840e-02       5.094048571043e+02 
       4.025584448087e-02       5.068076661557e+02 
       4.044821491497e-02       5.042109551605e+02 
       4.064226331098e-02       5.016193038551e+02 
       4.083805196607e-02       4.990312321229e+02 
       4.103564631778e-02       4.964453366483e+02 
       4.123511515355e-02       4.938614866814e+02 
       4.143653083778e-02       4.912825063715e+02 
       4.163996955825e-02       4.887054576600e+02 
       4.184551159400e-02       4.861309917768e+02 
       4.205324160672e-02       4.835568284875e+02 
       4.226324895833e-02       4.809851637983e+02 
       4.247562805751e-02       4.784173669703e+02 
       4.269047873838e-02       4.758513748903e+02 
       4.290790667488e-02       4.732843032873e+02 
       4.312802383509e-02       4.707197947528e+02 
       4.335094897991e-02       4.681566644284e+02 
       4.357680821155e-02       4.655942458343e+02 
       4.380573557760e-02       4.630302756752e+02 
       4.403787373783e-02       4.604675524595e+02 
       4.427337470117e-02       4.579049065825e+02 
       4.451240064216e-02       4.553409013273e+02 
       4.475512480701e-02       4.527761675762e+02 
       4.500173252126e-02       4.502092827784e+02 
       4.525242231265e-02       4.476409923942e+02 
       4.550740716535e-02       4.450698371137e+02 
       4.576691592387e-02       4.424964044994e+02 
       4.603119486835e-02       4.399188530523e+02 
       4.630050948643e-02       4.373373097691e+02 
       4.657514647133e-02       4.347518573678e+02 
       4.685541598099e-02       4.321596754855e+02 
       4.714165419937e-02       4.295609208850e+02 
       4.743422624862e-02       4.269574558782e+02 
       4.773352951019e-02       4.243440922476e+02 
       4.803999742377e-02       4.217230205748e+02 
       4.835410384715e-02       4.190919826538e+02 
       4.867636807631e-02       4.164506799295e+02 
       4.900736064623e-02       4.137961568081e+02 
       4.934771005787e-02       4.111297458404e+02 
       4.969811060897e-02       4.084478167688e+02 
       5.005933154553e-02       4.057496824034e+02 
       5.043222780019e-02       4.030333538835e+02 
       5.081775264617e-02       4.002965299588e+02 
       5.121697267352e-02       3.975372569208e+02 
       5.163108559379e-02       3.947540916666e+02 
       5.206144150519e-02       3.919435859065e+02 
       5.250956841086e-02       3.890999879983e+02 
       5.297720298715e-02       3.862245414188e+02 
       5.346632785954e-02       3.833098184228e+02 
       5.397921697521e-02       3.803503243531e+02 
       5.451849107999e-02       3.773436825855e+02 
       5.508718583123e-02       3.742787427170e+02 
       5.568883571964e-02       3.711501631114e+02 
       5.632757773207e-02       3.679476399892e+02 
       5.700827952619e-02       3.646595075190e+02 
       5.773669768945e-02       3.612697118503e+02 
       5.851967213224e-02       3.577601457223e+02 
       5.936536219292e-02       3.541050046562e+02 
       6.028352733112e-02       3.502742069685e+02 
       6.128584787603e-02       3.462254051523e+02 
       6.238626463459e-02       3.419053223681e+02 
       6.360128259309e-02       3.372420535117e+02 
       6.495012236302e-02       3.321377069809e+02 
       6.645450250004e-02       3.264640014937e+02 
