# Matter power spectrum P(k) at redshift z=4
# for k=1.05459e-05 to 1007.8 h/Mpc,
# number of wavenumbers equal to 624
#    1:k (h/Mpc)              2:P (Mpc/h)^3        
       1.054587662383e-05       2.786991008314e+00 
       2.395760700461e-05       6.246703362760e+00 
       3.741949231070e-05       9.680079552187e+00 
       5.097080407504e-05       1.311056155069e+01 
       6.465150826923e-05       1.655418920928e+01 
       7.850265151649e-05       2.002454871672e+01 
       9.256676051055e-05       2.353425883714e+01 
       1.068882603665e-04       2.709563211119e+01 
       1.215139176705e-04       3.072105197438e+01 
       1.364933140282e-04       3.442323158420e+01 
       1.518793559007e-04       3.821541890723e+01 
       1.677288263856e-04       4.211157740870e+01 
       1.841029842806e-04       4.612655671661e+01 
       2.010682151256e-04       5.027626168874e+01 
       2.186967378032e-04       5.457782403720e+01 
       2.370673684701e-04       5.904977852142e+01 
       2.562663408111e-04       6.371224524115e+01 
       2.763881774971e-04       6.858711544553e+01 
       2.975366018308e-04       7.369823860394e+01 
       3.198254703706e-04       7.907160532204e+01 
       3.433796962236e-04       8.473551629999e+01 
       3.683361181409e-04       9.072072653899e+01 
       3.948442520610e-04       9.706054733002e+01 
       4.230668392529e-04       1.037908821316e+02 
       4.531800792723e-04       1.109501710631e+02 
       4.853734083030e-04       1.185792054813e+02 
       5.198486575588e-04       1.267207757966e+02 
       5.568184080411e-04       1.354191094040e+02 
       5.965033555038e-04       1.447190549323e+02 
       6.391285237414e-04       1.546649883093e+02 
       6.849182269121e-04       1.652994201080e+02 
       7.340897917152e-04       1.766613298029e+02 
       7.868462095924e-04       1.887842856055e+02 
       8.433680859967e-04       2.016944636871e+02 
       9.038054586522e-04       2.154087308540e+02 
       9.682702230937e-04       2.299329762723e+02 
       1.036829977312e-03       2.452609188093e+02 
       1.109504033623e-03       2.613735453967e+02 
       1.186262131037e-03       2.782392956632e+02 
       1.267026045480e-03       2.958150068330e+02 
       1.351673909154e-03       3.140475204686e+02 
       1.440046703627e-03       3.328757594978e+02 
       1.531956161098e-03       3.522330817512e+02 
       1.627193233137e-03       3.720496250174e+02 
       1.725536357866e-03       3.922544900379e+02 
       1.826758931240e-03       4.127776166730e+02 
       1.930635607428e-03       4.335512563996e+02 
       2.036947265403e-03       4.545110827330e+02 
       2.145484649649e-03       4.755969157975e+02 
       2.256050808962e-03       4.967530218317e+02 
       2.368462520340e-03       5.179281046511e+02 
       2.482550905970e-03       5.390767981999e+02 
       2.598161443598e-03       5.601578317790e+02 
       2.715153546563e-03       5.811344721483e+02 
       2.833399858872e-03       6.019741597811e+02 
       2.952785379160e-03       6.226484730160e+02 
       3.073206498732e-03       6.431324404592e+02 
       3.194570014728e-03       6.634044774676e+02 
       3.316792160165e-03       6.834459723193e+02 
       3.439797677790e-03       7.032408715980e+02 
       3.563518953785e-03       7.227756215130e+02 
       3.687895219483e-03       7.420385349878e+02 
       3.812871823923e-03       7.610199533250e+02 
       3.938399576414e-03       7.797117549001e+02 
       4.064434156076e-03       7.981072728086e+02 
       4.190935583973e-03       8.162011885575e+02 
       4.317867752807e-03       8.339892971611e+02 
       4.445198008897e-03       8.514685460192e+02 
       4.572896781262e-03       8.686366359310e+02 
       4.700937252832e-03       8.854922035412e+02 
       4.829295069163e-03       9.020345300980e+02 
       4.957948080421e-03       9.182637899256e+02 
       5.086876112798e-03       9.341800514952e+02 
       5.216060765905e-03       9.497845133407e+02 
       5.345485233097e-03       9.650785786893e+02 
       5.475134141982e-03       9.800636456118e+02 
       5.604993412735e-03       9.947419873187e+02 
       5.735050132083e-03       1.009115903338e+03 
       5.865292441105e-03       1.023187667341e+03 
       5.995709435225e-03       1.036960297819e+03 
       6.126291074934e-03       1.050436358992e+03 
       6.257028106021e-03       1.063618949434e+03 
       6.387911988181e-03       1.076511484989e+03 
       6.518934831047e-03       1.089116901223e+03 
       6.650089336797e-03       1.101438641725e+03 
       6.781368748589e-03       1.113480009204e+03 
       6.912766804167e-03       1.125244459067e+03 
       7.044277694073e-03       1.136735677288e+03 
       7.175896023947e-03       1.147957125027e+03 
       7.307616780480e-03       1.158912108593e+03 
       7.439435300621e-03       1.169604304112e+03 
       7.571347243688e-03       1.180037535760e+03 
       7.703348566092e-03       1.190214676460e+03 
       7.835435498379e-03       1.200139887160e+03 
       7.967604524376e-03       1.209817067869e+03 
       8.099852362201e-03       1.219248901906e+03 
       8.232175946977e-03       1.228438693064e+03 
       8.364572415055e-03       1.237390995503e+03 
       8.497039089610e-03       1.246108163205e+03 
       8.629573467480e-03       1.254593741068e+03 
       8.762173207120e-03       1.262851166478e+03 
       8.894836117563e-03       1.270884413663e+03 
       9.027560148310e-03       1.278695964770e+03 
       9.160343380039e-03       1.286289049350e+03 
       9.293184016077e-03       1.293666877760e+03 
       9.426080374557e-03       1.300832893800e+03 
       9.559030881197e-03       1.307789878749e+03 
       9.692034062657e-03       1.314541042241e+03 
       9.825088540402e-03       1.321088783055e+03 
       9.958193025054e-03       1.327439747608e+03 
       1.009134631117e-02       1.333590778110e+03 
       1.022454727240e-02       1.339548062371e+03 
       1.035779485708e-02       1.345313866947e+03 
       1.049108808403e-02       1.350890667032e+03 
       1.062442603880e-02       1.356281926218e+03 
       1.075780787008e-02       1.361489673862e+03 
       1.089123278647e-02       1.366516512433e+03 
       1.102470005340e-02       1.371365646210e+03 
       1.115820899032e-02       1.376039233746e+03 
       1.129175896808e-02       1.380539869647e+03 
       1.142534940653e-02       1.384869836679e+03 
       1.155897977221e-02       1.389031848276e+03 
       1.169264957627e-02       1.393028488849e+03 
       1.182635837256e-02       1.396861805902e+03 
       1.196010575577e-02       1.400534283334e+03 
       1.209389135976e-02       1.404047876139e+03 
       1.222771485602e-02       1.407405472518e+03 
       1.236157595218e-02       1.410609041262e+03 
       1.249547439069e-02       1.413660312777e+03 
       1.262940994755e-02       1.416562185174e+03 
       1.276338243113e-02       1.419316223335e+03 
       1.289739168112e-02       1.421924700688e+03 
       1.303143756752e-02       1.424390384181e+03 
       1.316551998968e-02       1.426714127931e+03 
       1.329963887547e-02       1.428898694618e+03 
       1.343379418048e-02       1.430946352043e+03 
       1.356798588725e-02       1.432858203332e+03 
       1.370221400463e-02       1.434637710773e+03 
       1.383647856714e-02       1.436285534729e+03 
       1.397077963436e-02       1.437803892997e+03 
       1.410511729045e-02       1.439195211802e+03 
       1.423949164364e-02       1.440460432749e+03 
       1.437390282580e-02       1.441602981187e+03 
       1.450835099199e-02       1.442622955200e+03 
       1.464283632018e-02       1.443522972730e+03 
       1.477735901085e-02       1.444304371007e+03 
       1.491191928672e-02       1.444969069360e+03 
       1.504651739250e-02       1.445519705614e+03 
       1.518115359463e-02       1.445957281246e+03 
       1.531582818112e-02       1.446283434498e+03 
       1.545054146135e-02       1.446500730448e+03 
       1.558529376592e-02       1.446609255835e+03 
       1.572008544657e-02       1.446612331124e+03 
       1.585491687604e-02       1.446510816339e+03 
       1.598978844802e-02       1.446306554514e+03 
       1.612470057713e-02       1.446000899787e+03 
       1.625965369884e-02       1.445595729436e+03 
       1.639464826954e-02       1.445092630456e+03 
       1.652968476650e-02       1.444493249097e+03 
       1.666476368793e-02       1.443798757378e+03 
       1.679988555307e-02       1.443010596720e+03 
       1.693505090223e-02       1.442131112666e+03 
       1.707026029690e-02       1.441161884352e+03 
       1.720551431989e-02       1.440103123498e+03 
       1.734081357544e-02       1.438957492517e+03 
       1.747615868939e-02       1.437725462759e+03 
       1.761155030937e-02       1.436408889975e+03 
       1.774698910494e-02       1.435009297312e+03 
       1.788247576786e-02       1.433528525948e+03 
       1.801801101224e-02       1.431967061363e+03 
       1.815359557488e-02       1.430326643139e+03 
       1.828923021544e-02       1.428609798531e+03 
       1.842491571677e-02       1.426815109922e+03 
       1.856065288516e-02       1.424947411267e+03 
       1.869644255071e-02       1.423005368231e+03 
       1.883228556761e-02       1.420990483369e+03 
       1.896818281447e-02       1.418905193704e+03 
       1.910413519474e-02       1.416749893191e+03 
       1.924014363703e-02       1.414526005165e+03 
       1.937620909555e-02       1.412235559446e+03 
       1.951233255048e-02       1.409878522767e+03 
       1.964851500844e-02       1.407456171915e+03 
       1.978475750288e-02       1.404971407108e+03 
       1.992106109463e-02       1.402423630168e+03 
       2.005742687230e-02       1.399814655375e+03 
       2.019385595284e-02       1.397146076672e+03 
       2.033034948201e-02       1.394417221978e+03 
       2.046690863496e-02       1.391633473622e+03 
       2.060353461679e-02       1.388789375617e+03 
       2.074022866307e-02       1.385891624113e+03 
       2.087699204052e-02       1.382940153330e+03 
       2.101382604757e-02       1.379935395198e+03 
       2.115073201501e-02       1.376877260331e+03 
       2.128771130666e-02       1.373769258342e+03 
       2.142476532007e-02       1.370610166541e+03 
       2.156189548716e-02       1.367402092412e+03 
       2.169910327504e-02       1.364146941254e+03 
       2.183639018667e-02       1.360842804454e+03 
       2.197375776170e-02       1.357495171649e+03 
       2.211120757723e-02       1.354102769916e+03 
       2.224874124866e-02       1.350665166049e+03 
       2.238636043052e-02       1.347185159463e+03 
       2.252406681738e-02       1.343663618663e+03 
       2.266186214469e-02       1.340101454214e+03 
       2.279974818980e-02       1.336499377572e+03 
       2.293772677283e-02       1.332855889817e+03 
       2.307579975775e-02       1.329178658651e+03 
       2.321396905334e-02       1.325461548205e+03 
       2.335223661426e-02       1.321710729087e+03 
       2.349060444215e-02       1.317922370273e+03 
       2.362907458674e-02       1.314102909911e+03 
       2.376764914702e-02       1.310247925960e+03 
       2.390633027240e-02       1.306359658115e+03 
       2.404512016397e-02       1.302444301521e+03 
       2.418402107576e-02       1.298493324184e+03 
       2.432303531605e-02       1.294516138049e+03 
       2.446216524869e-02       1.290506385567e+03 
       2.460141329453e-02       1.286469085808e+03 
       2.474078193285e-02       1.282406803835e+03 
       2.488027370280e-02       1.278317806874e+03 
       2.501989120497e-02       1.274203640338e+03 
       2.515963710296e-02       1.270062596441e+03 
       2.529951412499e-02       1.265895568626e+03 
       2.543952506557e-02       1.261709776014e+03 
       2.557967278729e-02       1.257499056916e+03 
       2.571996022254e-02       1.253267416677e+03 
       2.586039037538e-02       1.249015077829e+03 
       2.600096632349e-02       1.244740975034e+03 
       2.614169122007e-02       1.240447699516e+03 
       2.628256829594e-02       1.236137004551e+03 
       2.642360086160e-02       1.231807049530e+03 
       2.656479230944e-02       1.227459971429e+03 
       2.670614611595e-02       1.223095045989e+03 
       2.684766584408e-02       1.218715120416e+03 
       2.698935514561e-02       1.214320143858e+03 
       2.713121776367e-02       1.209898619496e+03 
       2.727325753527e-02       1.205483922907e+03 
       2.741547839400e-02       1.201043764619e+03 
       2.755788437276e-02       1.196593512312e+03 
       2.770047960660e-02       1.192128533529e+03 
       2.784326833570e-02       1.187654115851e+03 
       2.798625490840e-02       1.183166763367e+03 
       2.812944378436e-02       1.178665773823e+03 
       2.827283953786e-02       1.174158004709e+03 
       2.841644686117e-02       1.169641019612e+03 
       2.856027056810e-02       1.165112231129e+03 
       2.870431559761e-02       1.160577163406e+03 
       2.884858701765e-02       1.156033124040e+03 
       2.899309002902e-02       1.151481508970e+03 
       2.913782996949e-02       1.146925153459e+03 
       2.928281231802e-02       1.142361326462e+03 
       2.942804269914e-02       1.137788481316e+03 
       2.957352688749e-02       1.133214108644e+03 
       2.971927081260e-02       1.128630385045e+03 
       2.986528056376e-02       1.124047859411e+03 
       3.001156239516e-02       1.119457107023e+03 
       3.015812273119e-02       1.114863440605e+03 
       3.030496817197e-02       1.110267433786e+03 
       3.045210549909e-02       1.105667646637e+03 
       3.059954168162e-02       1.101064981267e+03 
       3.074728388228e-02       1.096460035425e+03 
       3.089533946398e-02       1.091853162690e+03 
       3.104371599653e-02       1.087245096859e+03 
       3.119242126369e-02       1.082637668090e+03 
       3.134146327051e-02       1.078027179140e+03 
       3.149085025095e-02       1.073415333447e+03 
       3.164059067589e-02       1.068809395570e+03 
       3.179069326138e-02       1.064200329271e+03 
       3.194116697741e-02       1.059591837034e+03 
       3.209202105689e-02       1.054985229076e+03 
       3.224326500520e-02       1.050379420825e+03 
       3.239490860999e-02       1.045777403433e+03 
       3.254696195161e-02       1.041174819800e+03 
       3.269943541387e-02       1.036578398698e+03 
       3.285233969536e-02       1.031978094597e+03 
       3.300568582133e-02       1.027385611684e+03 
       3.315948515602e-02       1.022796680723e+03 
       3.331374941570e-02       1.018210443495e+03 
       3.346849068227e-02       1.013628675893e+03 
       3.362372141749e-02       1.009048950250e+03 
       3.377945447800e-02       1.004475965784e+03 
       3.393570313096e-02       9.999029919781e+02 
       3.409248107059e-02       9.953382509263e+02 
       3.424980243545e-02       9.907765813194e+02 
       3.440768182662e-02       9.862199906923e+02 
       3.456613432688e-02       9.816727921476e+02 
       3.472517552076e-02       9.771245566643e+02 
       3.488482151577e-02       9.725867584403e+02 
       3.504508896467e-02       9.680527419219e+02 
       3.520599508896e-02       9.635226151161e+02 
       3.536755770364e-02       9.590031727996e+02 
       3.552979524329e-02       9.544877020499e+02 
       3.569272678970e-02       9.499784655262e+02 
       3.585637210089e-02       9.454753036076e+02 
       3.602075164186e-02       9.409811585188e+02 
       3.618588661713e-02       9.364906700900e+02 
       3.635179900506e-02       9.320076525146e+02 
       3.651851159422e-02       9.275334645452e+02 
       3.668604802199e-02       9.230610427018e+02 
       3.685443281532e-02       9.185999577169e+02 
       3.702369143405e-02       9.141470001586e+02 
       3.719385031690e-02       9.097004688626e+02 
       3.736493693021e-02       9.052573514720e+02 
       3.753697981988e-02       9.008247676314e+02 
       3.771000866645e-02       8.963976581695e+02 
       3.788405434385e-02       8.919802667226e+02 
       3.805914898192e-02       8.875682004656e+02 
       3.823532603303e-02       8.831651931191e+02 
       3.841262034320e-02       8.787663927368e+02 
       3.859106822800e-02       8.743750796819e+02 
       3.877070755366e-02       8.699925067110e+02 
       3.895157782381e-02       8.656159176658e+02 
       3.913372027237e-02       8.612458600018e+02 
       3.931717796296e-02       8.568840883724e+02 
       3.950199589564e-02       8.525286281540e+02 
       3.968822112142e-02       8.481793830330e+02 
       3.987590286525e-02       8.438374139402e+02 
       4.006509265840e-02       8.395001724779e+02 
       4.025584448087e-02       8.351729275524e+02 
       4.044821491497e-02       8.308469773226e+02 
       4.064226331098e-02       8.265298726819e+02 
       4.083805196607e-02       8.222191773577e+02 
       4.103564631778e-02       8.179125774483e+02 
       4.123511515355e-02       8.136098417852e+02 
       4.143653083778e-02       8.093156322574e+02 
       4.163996955825e-02       8.050250990841e+02 
       4.184551159400e-02       8.007392996447e+02 
       4.205324160672e-02       7.964544858879e+02 
       4.226324895833e-02       7.921742427588e+02 
       4.247562805751e-02       7.879008138621e+02 
       4.269047873838e-02       7.836307971278e+02 
       4.290790667488e-02       7.793594096443e+02 
       4.312802383509e-02       7.750926400064e+02 
       4.335094897991e-02       7.708285134502e+02 
       4.357680821155e-02       7.665658936132e+02 
       4.380573557760e-02       7.623010355528e+02 
       4.403787373783e-02       7.580385247168e+02 
       4.427337470117e-02       7.537763863335e+02 
       4.451240064216e-02       7.495122290366e+02 
       4.475512480701e-02       7.452470525282e+02 
       4.500173252126e-02       7.409784807140e+02 
       4.525242231265e-02       7.367076964587e+02 
       4.550740716535e-02       7.324322674877e+02 
       4.576691592387e-02       7.281530983927e+02 
       4.603119486835e-02       7.238671274816e+02 
       4.630050948643e-02       7.195745172289e+02 
       4.657514647133e-02       7.152753593449e+02 
       4.685541598099e-02       7.109649784980e+02 
       4.714165419937e-02       7.066435863312e+02 
       4.743422624862e-02       7.023142039693e+02 
       4.773352951019e-02       6.979682519949e+02 
       4.803999742377e-02       6.936092931282e+02 
       4.835410384715e-02       6.892335869954e+02 
       4.867636807631e-02       6.848405932440e+02 
       4.900736064623e-02       6.804254326356e+02 
       4.934771005787e-02       6.759902764283e+02 
       4.969811060897e-02       6.715291218435e+02 
       5.005933154553e-02       6.670408195669e+02 
       5.043222780019e-02       6.625220755586e+02 
       5.081775264617e-02       6.579690830493e+02 
       5.121697267352e-02       6.533786397814e+02 
       5.163108559379e-02       6.487483218065e+02 
       5.206144150519e-02       6.440724686883e+02 
       5.250956841086e-02       6.393415667844e+02 
       5.297720298715e-02       6.345576329441e+02 
       5.346632785954e-02       6.297084055985e+02 
       5.397921697521e-02       6.247847860948e+02 
       5.451849107999e-02       6.197827656583e+02 
       5.508718583123e-02       6.146838806214e+02 
       5.568883571964e-02       6.094792106711e+02 
       5.632757773207e-02       6.041515877020e+02 
       5.700827952619e-02       5.986816033163e+02 
       5.773669768945e-02       5.930425402560e+02 
       5.851967213224e-02       5.872043202659e+02 
       5.936536219292e-02       5.811241461159e+02 
       6.028352733112e-02       5.747521919340e+02 
       6.128584787603e-02       5.680185864747e+02 
       6.238626463459e-02       5.608356474217e+02 
       6.360128259309e-02       5.530854297314e+02 
       6.495012236302e-02       5.446077265193e+02 
       6.645450250004e-02       5.351928608685e+02 
