# Matter power spectrum P(k) at redshift z=3.5
# for k=1.05459e-05 to 1007.8 h/Mpc,
# number of wavenumbers equal to 624
#    1:k (h/Mpc)              2:P (Mpc/h)^3        
       1.054587662383e-05       3.434853771585e+00 
       2.395760700461e-05       7.698807513996e+00 
       3.741949231070e-05       1.193029872814e+01 
       5.097080407504e-05       1.615821613557e+01 
       6.465150826923e-05       2.040232565476e+01 
       7.850265151649e-05       2.467936882494e+01 
       9.256676051055e-05       2.900489461012e+01 
       1.068882603665e-04       3.339407418246e+01 
       1.215139176705e-04       3.786216560048e+01 
       1.364933140282e-04       4.242483259398e+01 
       1.518793559007e-04       4.709839733552e+01 
       1.677288263856e-04       5.190006278213e+01 
       1.841029842806e-04       5.684812290815e+01 
       2.010682151256e-04       6.196217084044e+01 
       2.186967378032e-04       6.726330992859e+01 
       2.370673684701e-04       7.277437069152e+01 
       2.562663408111e-04       7.852013491453e+01 
       2.763881774971e-04       8.452756411325e+01 
       2.975366018308e-04       9.082602944788e+01 
       3.198254703706e-04       9.744753630757e+01 
       3.433796962236e-04       1.044269317298e+02 
       3.683361181409e-04       1.118020808171e+02 
       3.948442520610e-04       1.196139912783e+02 
       4.230668392529e-04       1.279068562645e+02 
       4.531800792723e-04       1.367279841989e+02 
       4.853734083030e-04       1.461275688781e+02 
       5.198486575588e-04       1.561582538486e+02 
       5.568184080411e-04       1.668744384513e+02 
       5.965033555038e-04       1.783312721819e+02 
       6.391285237414e-04       1.905833068329e+02 
       6.849182269121e-04       2.036827827644e+02 
       7.340897917152e-04       2.176775803549e+02 
       7.868462095924e-04       2.326089106276e+02 
       8.433680859967e-04       2.485088845440e+02 
       9.038054586522e-04       2.653981643509e+02 
       9.682702230937e-04       2.832839230748e+02 
       1.036829977312e-03       3.021583916901e+02 
       1.109504033623e-03       3.219981803475e+02 
       1.186262131037e-03       3.427645145300e+02 
       1.267026045480e-03       3.644043983432e+02 
       1.351673909154e-03       3.868525831141e+02 
       1.440046703627e-03       4.100341038296e+02 
       1.531956161098e-03       4.338671480575e+02 
       1.627193233137e-03       4.582659109912e+02 
       1.725536357866e-03       4.831432539083e+02 
       1.826758931240e-03       5.084129937918e+02 
       1.930635607428e-03       5.339917103933e+02 
       2.036947265403e-03       5.598001222608e+02 
       2.145484649649e-03       5.857640019741e+02 
       2.256050808962e-03       6.118145749517e+02 
       2.368462520340e-03       6.378885408667e+02 
       2.482550905970e-03       6.639299368114e+02 
       2.598161443598e-03       6.898878905232e+02 
       2.715153546563e-03       7.157171718424e+02 
       2.833399858872e-03       7.413777255475e+02 
       2.952785379160e-03       7.668346047837e+02 
       3.073206498732e-03       7.920571168263e+02 
       3.194570014728e-03       8.170187172215e+02 
       3.316792160165e-03       8.416964947321e+02 
       3.439797677790e-03       8.660706592557e+02 
       3.563518953785e-03       8.901244786229e+02 
       3.687895219483e-03       9.138435124291e+02 
       3.812871823923e-03       9.372158226887e+02 
       3.938399576414e-03       9.602313803772e+02 
       4.064434156076e-03       9.828819666747e+02 
       4.190935583973e-03       1.005161041523e+03 
       4.317867752807e-03       1.027063445090e+03 
       4.445198008897e-03       1.048585439330e+03 
       4.572896781262e-03       1.069724212009e+03 
       4.700937252832e-03       1.090478075006e+03 
       4.829295069163e-03       1.110846149498e+03 
       4.957948080421e-03       1.130828630419e+03 
       5.086876112798e-03       1.150425585092e+03 
       5.216060765905e-03       1.169638475370e+03 
       5.345485233097e-03       1.188469022072e+03 
       5.475134141982e-03       1.206918948466e+03 
       5.604993412735e-03       1.224991061930e+03 
       5.735050132083e-03       1.242688204803e+03 
       5.865292441105e-03       1.260013186820e+03 
       5.995709435225e-03       1.276969729841e+03 
       6.126291074934e-03       1.293560990938e+03 
       6.257028106021e-03       1.309790823227e+03 
       6.387911988181e-03       1.325663316775e+03 
       6.518934831047e-03       1.341182375795e+03 
       6.650089336797e-03       1.356352032917e+03 
       6.781368748589e-03       1.371176309447e+03 
       6.912766804167e-03       1.385659265918e+03 
       7.044277694073e-03       1.399805868793e+03 
       7.175896023947e-03       1.413620404713e+03 
       7.307616780480e-03       1.427106938408e+03 
       7.439435300621e-03       1.440269978094e+03 
       7.571347243688e-03       1.453114218209e+03 
       7.703348566092e-03       1.465643176931e+03 
       7.835435498379e-03       1.477861962138e+03 
       7.967604524376e-03       1.489775362039e+03 
       8.099852362201e-03       1.501386669371e+03 
       8.232175946977e-03       1.512699943238e+03 
       8.364572415055e-03       1.523720786432e+03 
       8.497039089610e-03       1.534452089857e+03 
       8.629573467480e-03       1.544898219862e+03 
       8.762173207120e-03       1.555063399301e+03 
       8.894836117563e-03       1.564952519324e+03 
       9.027560148310e-03       1.574568628521e+03 
       9.160343380039e-03       1.583915695067e+03 
       9.293184016077e-03       1.592997660429e+03 
       9.426080374557e-03       1.601821424576e+03 
       9.559030881197e-03       1.610385465051e+03 
       9.692034062657e-03       1.618696000580e+03 
       9.825088540402e-03       1.626756324787e+03 
       9.958193025054e-03       1.634570714680e+03 
       1.009134631117e-02       1.642141934227e+03 
       1.022454727240e-02       1.649474287415e+03 
       1.035779485708e-02       1.656570794947e+03 
       1.049108808403e-02       1.663434519420e+03 
       1.062442603880e-02       1.670069726305e+03 
       1.075780787008e-02       1.676478912626e+03 
       1.089123278647e-02       1.682665282736e+03 
       1.102470005340e-02       1.688632784362e+03 
       1.115820899032e-02       1.694384075811e+03 
       1.129175896808e-02       1.699922355229e+03 
       1.142534940653e-02       1.705250434065e+03 
       1.155897977221e-02       1.710371653734e+03 
       1.169264957627e-02       1.715289198441e+03 
       1.182635837256e-02       1.720005590338e+03 
       1.196010575577e-02       1.724523887367e+03 
       1.209389135976e-02       1.728846496802e+03 
       1.222771485602e-02       1.732976974430e+03 
       1.236157595218e-02       1.736917744545e+03 
       1.249547439069e-02       1.740670937817e+03 
       1.262940994755e-02       1.744240122606e+03 
       1.276338243113e-02       1.747627225939e+03 
       1.289739168112e-02       1.750835048829e+03 
       1.303143756752e-02       1.753867000211e+03 
       1.316551998968e-02       1.756724134257e+03 
       1.329963887547e-02       1.759409855702e+03 
       1.343379418048e-02       1.761926959959e+03 
       1.356798588725e-02       1.764276810573e+03 
       1.370221400463e-02       1.766463674162e+03 
       1.383647856714e-02       1.768488366028e+03 
       1.397077963436e-02       1.770353649131e+03 
       1.410511729045e-02       1.772062480288e+03 
       1.423949164364e-02       1.773616002586e+03 
       1.437390282580e-02       1.775018429832e+03 
       1.450835099199e-02       1.776269885517e+03 
       1.464283632018e-02       1.777373627952e+03 
       1.477735901085e-02       1.778331292067e+03 
       1.491191928672e-02       1.779145243210e+03 
       1.504651739250e-02       1.779818726175e+03 
       1.518115359463e-02       1.780352978630e+03 
       1.531582818112e-02       1.780750019166e+03 
       1.545054146135e-02       1.781013005995e+03 
       1.558529376592e-02       1.781142048366e+03 
       1.572008544657e-02       1.781141236974e+03 
       1.585491687604e-02       1.781011630911e+03 
       1.598978844802e-02       1.780755500476e+03 
       1.612470057713e-02       1.780374514865e+03 
       1.625965369884e-02       1.779870988478e+03 
       1.639464826954e-02       1.779246874627e+03 
       1.652968476650e-02       1.778504201563e+03 
       1.666476368793e-02       1.777644414640e+03 
       1.679988555307e-02       1.776669289400e+03 
       1.693505090223e-02       1.775581715250e+03 
       1.707026029690e-02       1.774383637671e+03 
       1.720551431989e-02       1.773075318187e+03 
       1.734081357544e-02       1.771660037768e+03 
       1.747615868939e-02       1.770138375677e+03 
       1.761155030937e-02       1.768512620465e+03 
       1.774698910494e-02       1.766784646837e+03 
       1.788247576786e-02       1.764956724231e+03 
       1.801801101224e-02       1.763029450963e+03 
       1.815359557488e-02       1.761004970463e+03 
       1.828923021544e-02       1.758886394007e+03 
       1.842491571677e-02       1.756671982472e+03 
       1.856065288516e-02       1.754367684158e+03 
       1.869644255071e-02       1.751971858402e+03 
       1.883228556761e-02       1.749486356339e+03 
       1.896818281447e-02       1.746914181134e+03 
       1.910413519474e-02       1.744255818300e+03 
       1.924014363703e-02       1.741513021647e+03 
       1.937620909555e-02       1.738688289746e+03 
       1.951233255048e-02       1.735781586157e+03 
       1.964851500844e-02       1.732794484194e+03 
       1.978475750288e-02       1.729730552103e+03 
       1.992106109463e-02       1.726589057048e+03 
       2.005742687230e-02       1.723372231837e+03 
       2.019385595284e-02       1.720082043937e+03 
       2.033034948201e-02       1.716717664444e+03 
       2.046690863496e-02       1.713285718231e+03 
       2.060353461679e-02       1.709779494694e+03 
       2.074022866307e-02       1.706207235577e+03 
       2.087699204052e-02       1.702568863412e+03 
       2.101382604757e-02       1.698864907172e+03 
       2.115073201501e-02       1.695095258262e+03 
       2.128771130666e-02       1.691264239901e+03 
       2.142476532007e-02       1.687370346761e+03 
       2.156189548716e-02       1.683416173389e+03 
       2.169910327504e-02       1.679404066723e+03 
       2.183639018667e-02       1.675331678026e+03 
       2.197375776170e-02       1.671205762537e+03 
       2.211120757723e-02       1.667024761334e+03 
       2.224874124866e-02       1.662788131553e+03 
       2.238636043052e-02       1.658499327593e+03 
       2.252406681738e-02       1.654159414707e+03 
       2.266186214469e-02       1.649769517808e+03 
       2.279974818980e-02       1.645330512509e+03 
       2.293772677283e-02       1.640840544261e+03 
       2.307579975775e-02       1.636309065301e+03 
       2.321396905334e-02       1.631728518380e+03 
       2.335223661426e-02       1.627106494098e+03 
       2.349060444215e-02       1.622438278367e+03 
       2.362907458674e-02       1.617731801674e+03 
       2.376764914702e-02       1.612981618671e+03 
       2.390633027240e-02       1.608190479218e+03 
       2.404512016397e-02       1.603366018102e+03 
       2.418402107576e-02       1.598497728995e+03 
       2.432303531605e-02       1.593597197570e+03 
       2.446216524869e-02       1.588656598249e+03 
       2.460141329453e-02       1.583682109190e+03 
       2.474078193285e-02       1.578676887377e+03 
       2.488027370280e-02       1.573638799179e+03 
       2.501989120497e-02       1.568569747555e+03 
       2.515963710296e-02       1.563467631031e+03 
       2.529951412499e-02       1.558333551894e+03 
       2.543952506557e-02       1.553176384110e+03 
       2.557967278729e-02       1.547988556337e+03 
       2.571996022254e-02       1.542774994302e+03 
       2.586039037538e-02       1.537535972553e+03 
       2.600096632349e-02       1.532270183117e+03 
       2.614169122007e-02       1.526980801245e+03 
       2.628256829594e-02       1.521670008698e+03 
       2.642360086160e-02       1.516335520286e+03 
       2.656479230944e-02       1.510979972131e+03 
       2.670614611595e-02       1.505602474911e+03 
       2.684766584408e-02       1.500206531998e+03 
       2.698935514561e-02       1.494792084774e+03 
       2.713121776367e-02       1.489344977545e+03 
       2.727325753527e-02       1.483906289234e+03 
       2.741547839400e-02       1.478436288518e+03 
       2.755788437276e-02       1.472953879393e+03 
       2.770047960660e-02       1.467453366259e+03 
       2.784326833570e-02       1.461941249734e+03 
       2.798625490840e-02       1.456413238789e+03 
       2.812944378436e-02       1.450868463899e+03 
       2.827283953786e-02       1.445315369883e+03 
       2.841644686117e-02       1.439750951155e+03 
       2.856027056810e-02       1.434172024598e+03 
       2.870431559761e-02       1.428585397225e+03 
       2.884858701765e-02       1.422987757974e+03 
       2.899309002902e-02       1.417380805602e+03 
       2.913782996949e-02       1.411768050791e+03 
       2.928281231802e-02       1.406146125488e+03 
       2.942804269914e-02       1.400513130775e+03 
       2.957352688749e-02       1.394878279058e+03 
       2.971927081260e-02       1.389231946244e+03 
       2.986528056376e-02       1.383587114957e+03 
       3.001156239516e-02       1.377932179370e+03 
       3.015812273119e-02       1.372273700206e+03 
       3.030496817197e-02       1.366612363176e+03 
       3.045210549909e-02       1.360946395523e+03 
       3.059954168162e-02       1.355276928145e+03 
       3.074728388228e-02       1.349604677665e+03 
       3.089533946398e-02       1.343930090053e+03 
       3.104371599653e-02       1.338254063647e+03 
       3.119242126369e-02       1.332578853967e+03 
       3.134146327051e-02       1.326899909538e+03 
       3.149085025095e-02       1.321219327485e+03 
       3.164059067589e-02       1.315546050455e+03 
       3.179069326138e-02       1.309868955500e+03 
       3.194116697741e-02       1.304192601315e+03 
       3.209202105689e-02       1.298518594916e+03 
       3.224326500520e-02       1.292845615668e+03 
       3.239490860999e-02       1.287177328167e+03 
       3.254696195161e-02       1.281508382385e+03 
       3.269943541387e-02       1.275847057230e+03 
       3.285233969536e-02       1.270180987483e+03 
       3.300568582133e-02       1.264524577818e+03 
       3.315948515602e-02       1.258872582772e+03 
       3.331374941570e-02       1.253223926047e+03 
       3.346849068227e-02       1.247580816536e+03 
       3.362372141749e-02       1.241940249388e+03 
       3.377945447800e-02       1.236308018818e+03 
       3.393570313096e-02       1.230675836781e+03 
       3.409248107059e-02       1.225053823816e+03 
       3.424980243545e-02       1.219435629158e+03 
       3.440768182662e-02       1.213823724032e+03 
       3.456613432688e-02       1.208223408275e+03 
       3.472517552076e-02       1.202621855923e+03 
       3.488482151577e-02       1.197033192374e+03 
       3.504508896467e-02       1.191449209239e+03 
       3.520599508896e-02       1.185870056917e+03 
       3.536755770364e-02       1.180304092787e+03 
       3.552979524329e-02       1.174743050894e+03 
       3.569272678970e-02       1.169189721293e+03 
       3.585637210089e-02       1.163643902187e+03 
       3.602075164186e-02       1.158109216355e+03 
       3.618588661713e-02       1.152579069937e+03 
       3.635179900506e-02       1.147058157763e+03 
       3.651851159422e-02       1.141548147595e+03 
       3.668604802199e-02       1.136040348072e+03 
       3.685443281532e-02       1.130546537568e+03 
       3.702369143405e-02       1.125062765517e+03 
       3.719385031690e-02       1.119586941046e+03 
       3.736493693021e-02       1.114115349118e+03 
       3.753697981988e-02       1.108656756741e+03 
       3.771000866645e-02       1.103204937525e+03 
       3.788405434385e-02       1.097765110923e+03 
       3.805914898192e-02       1.092331872661e+03 
       3.823532603303e-02       1.086909813932e+03 
       3.841262034320e-02       1.081492967767e+03 
       3.859106822800e-02       1.076085358541e+03 
       3.877070755366e-02       1.070688540836e+03 
       3.895157782381e-02       1.065299113397e+03 
       3.913372027237e-02       1.059917751750e+03 
       3.931717796296e-02       1.054546617344e+03 
       3.950199589564e-02       1.049183268879e+03 
       3.968822112142e-02       1.043827594733e+03 
       3.987590286525e-02       1.038480896284e+03 
       4.006509265840e-02       1.033140038080e+03 
       4.025584448087e-02       1.027811495927e+03 
       4.044821491497e-02       1.022484564852e+03 
       4.064226331098e-02       1.017168534655e+03 
       4.083805196607e-02       1.011860405909e+03 
       4.103564631778e-02       1.006557328661e+03 
       4.123511515355e-02       1.001259012715e+03 
       4.143653083778e-02       9.959711982703e+02 
       4.163996955825e-02       9.906879156451e+02 
       4.184551159400e-02       9.854104576830e+02 
       4.205324160672e-02       9.801342158597e+02 
       4.226324895833e-02       9.748635967063e+02 
       4.247562805751e-02       9.696013604064e+02 
       4.269047873838e-02       9.643433179953e+02 
       4.290790667488e-02       9.590835814092e+02 
       4.312802383509e-02       9.538295206188e+02 
       4.335094897991e-02       9.485787044248e+02 
       4.357680821155e-02       9.433297274480e+02 
       4.380573557760e-02       9.380779837452e+02 
       4.403787373783e-02       9.328291169571e+02 
       4.427337470117e-02       9.275806905303e+02 
       4.451240064216e-02       9.223297650939e+02 
       4.475512480701e-02       9.170775673465e+02 
       4.500173252126e-02       9.118211757047e+02 
       4.525242231265e-02       9.065620428170e+02 
       4.550740716535e-02       9.012971796494e+02 
       4.576691592387e-02       8.960276932051e+02 
       4.603119486835e-02       8.907498215960e+02 
       4.630050948643e-02       8.854637603138e+02 
       4.657514647133e-02       8.801696304663e+02 
       4.685541598099e-02       8.748616672076e+02 
       4.714165419937e-02       8.695401430198e+02 
       4.743422624862e-02       8.642087741872e+02 
       4.773352951019e-02       8.588570019222e+02 
       4.803999742377e-02       8.534892048949e+02 
       4.835410384715e-02       8.481007912031e+02 
       4.867636807631e-02       8.426910915255e+02 
       4.900736064623e-02       8.372540935815e+02 
       4.934771005787e-02       8.317924837433e+02 
       4.969811060897e-02       8.262988577481e+02 
       5.005933154553e-02       8.207718063405e+02 
       5.043222780019e-02       8.152072800320e+02 
       5.081775264617e-02       8.096005659775e+02 
       5.121697267352e-02       8.039477418330e+02 
       5.163108559379e-02       7.982457954495e+02 
       5.206144150519e-02       7.924877699561e+02 
       5.250956841086e-02       7.866619302841e+02 
       5.297720298715e-02       7.807707468232e+02 
       5.346632785954e-02       7.747991196356e+02 
       5.397921697521e-02       7.687358323489e+02 
       5.451849107999e-02       7.625759282242e+02 
       5.508718583123e-02       7.562966676421e+02 
       5.568883571964e-02       7.498870475265e+02 
       5.632757773207e-02       7.433259154839e+02 
       5.700827952619e-02       7.365893779560e+02 
       5.773669768945e-02       7.296445183522e+02 
       5.851967213224e-02       7.224543254943e+02 
       5.936536219292e-02       7.149661267760e+02 
       6.028352733112e-02       7.071185963697e+02 
       6.128584787603e-02       6.988257788884e+02 
       6.238626463459e-02       6.899797933116e+02 
       6.360128259309e-02       6.804355137180e+02 
       6.495012236302e-02       6.699957959537e+02 
       6.645450250004e-02       6.584025920598e+02 
