# dimensionless total [l(l+1)/2pi] C_l's
# for l=2 to 3000, i.e. number of multipoles equal to 2999
#
# -> if you prefer output in CAMB/HealPix/LensPix units/order, set 'format' to 'camb' in input file
# -> if you don't want to see such a header, set 'headers' to 'no' in input file
# -> for CMB lensing (phi), these are C_l^phi-phi for the lensing potential.
#    Remember the conversion factors:
#    C_l^dd (deflection) = l(l+1) C_l^phi-phi
#    C_l^gg (shear/convergence) = 1/4 (l(l+1))^2 C_l^phi-phi
#
# 1:l     2:TT                     3:EE                     4:TE                     5:BB                     6:phiphi                 7:TPhi                   8:Ephi               
    2       1.382256017637e-10       4.961570142741e-15       3.748731125830e-13       0.000000000000e+00       7.961584884782e-09       4.581536242037e-10      -1.998702760529e-12 
    3       1.306671749359e-10       7.166541507822e-15       4.440297296181e-13       0.000000000000e+00       4.932823311628e-09       3.243021054464e-10      -1.622040445322e-12 
    4       1.234192466443e-10       7.035315982212e-15       4.338393706168e-13       0.000000000000e+00       3.426982358002e-09       2.450773930598e-10      -1.164610248261e-12 
    5       1.179173090818e-10       5.365249765659e-15       3.844168927366e-13       0.000000000000e+00       2.552528141332e-09       1.931649202067e-10      -7.454794002462e-13 
    6       1.140514200566e-10       3.373993392050e-15       3.205842967412e-13       0.000000000000e+00       1.988122352416e-09       1.567564429674e-10      -4.037058873791e-13 
    7       1.114970433974e-10       1.880390058097e-15       2.579783183201e-13       0.000000000000e+00       1.599200362402e-09       1.300772130224e-10      -1.526859352524e-13 
    8       1.099892239168e-10       1.082441316118e-15       2.047608241378e-13       0.000000000000e+00       1.318619097590e-09       1.098692970965e-10       9.541066242933e-15 
    9       1.092115455144e-10       7.768962172055e-16       1.645343395281e-13       0.000000000000e+00       1.108458803304e-09       9.413886941567e-11       9.460432678568e-14 
   10       1.090124262093e-10       6.755881148980e-16       1.378632005695e-13       0.000000000000e+00       9.459748778352e-10       8.165461159865e-11       1.199292253232e-13 
   11       1.092793297436e-10       6.005209513446e-16       1.232375970900e-13       0.000000000000e+00       7.980034060353e-10       7.201159238418e-11       1.052298579738e-13 
   12       1.098731467821e-10       5.116399502794e-16       1.181466917868e-13       0.000000000000e+00       6.961444650539e-10       6.356453190364e-11       6.931905282528e-14 
   13       1.107361194184e-10       4.382542952649e-16       1.197998594073e-13       0.000000000000e+00       6.125989128339e-10       5.661346673757e-11       2.780264522095e-14 
   14       1.117974086660e-10       4.070225610824e-16       1.255243295838e-13       0.000000000000e+00       5.431650056507e-10       5.079650371489e-11      -8.408650597769e-15 
   15       1.130602372558e-10       4.150556399446e-16       1.331587846103e-13       0.000000000000e+00       4.847824058512e-10       4.569345081234e-11      -3.346765290921e-14 
   16       1.144387493489e-10       4.426273796552e-16       1.412755937048e-13       0.000000000000e+00       4.351924356534e-10       4.138833356412e-11      -4.525804221495e-14 
   17       1.159382571811e-10       4.756327069574e-16       1.491141121588e-13       0.000000000000e+00       3.926961170442e-10       3.768758266717e-11      -4.533081959222e-14 
   18       1.175476714223e-10       5.155427691687e-16       1.564149497741e-13       0.000000000000e+00       3.558507536445e-10       3.442261494349e-11      -3.740403630283e-14 
   19       1.192646147755e-10       5.713822210965e-16       1.633469124744e-13       0.000000000000e+00       3.240602402232e-10       3.155507128323e-11      -2.527039991012e-14 
   20       1.210413545499e-10       6.531763984893e-16       1.702355696529e-13       0.000000000000e+00       2.960907385890e-10       2.900411720232e-11      -1.337747306535e-14 
   21       1.228911590388e-10       7.618134275646e-16       1.773887244179e-13       0.000000000000e+00       2.714957485016e-10       2.675140846500e-11      -4.182604497517e-15 
   22       1.248148918476e-10       8.941565014508e-16       1.850847494175e-13       0.000000000000e+00       2.496796600441e-10       2.475947161588e-11       6.567379450353e-16 
   23       1.268057075445e-10       1.047900130614e-15       1.933497175868e-13       0.000000000000e+00       2.303374132564e-10       2.298784443544e-11       1.152568025802e-15 
   24       1.288352743989e-10       1.220826928211e-15       2.020479554391e-13       0.000000000000e+00       2.130168652596e-10       2.137766701633e-11      -1.775846919479e-15 
   25       1.309110618195e-10       1.413538590359e-15       2.108473162009e-13       0.000000000000e+00       1.975103340500e-10       1.993207737914e-11      -6.663703374941e-15 
   26       1.330359438988e-10       1.627079660073e-15       2.192979443632e-13       0.000000000000e+00       1.835332693400e-10       1.865343704971e-11      -1.169182742458e-14 
   27       1.352067003527e-10       1.860423714834e-15       2.270315083340e-13       0.000000000000e+00       1.709154646411e-10       1.750283177182e-11      -1.568447190062e-14 
   28       1.374094331363e-10       2.112134221221e-15       2.337055699442e-13       0.000000000000e+00       1.594369711175e-10       1.642423575605e-11      -1.773163077954e-14 
   29       1.396509136435e-10       2.383528894262e-15       2.391738775116e-13       0.000000000000e+00       1.490372172492e-10       1.541876535848e-11      -1.779753834730e-14 
   30       1.419328010024e-10       2.677065186232e-15       2.433566853288e-13       0.000000000000e+00       1.396023400315e-10       1.449983485509e-11      -1.622164829898e-14 
   31       1.442465413781e-10       2.995347693236e-15       2.462098543321e-13       0.000000000000e+00       1.309372991690e-10       1.367270136143e-11      -1.350843082331e-14 
   32       1.465954844147e-10       3.339952367888e-15       2.478040409128e-13       0.000000000000e+00       1.229961142952e-10       1.292905583516e-11      -1.029946337660e-14 
   33       1.489784489779e-10       3.712175021759e-15       2.482810506902e-13       0.000000000000e+00       1.157216621532e-10       1.224864233669e-11      -7.416076855378e-15 
   34       1.513878835391e-10       4.113233748031e-15       2.477926640218e-13       0.000000000000e+00       1.090109184302e-10       1.160732199458e-11      -5.664743887880e-15 
   35       1.538281261922e-10       4.543918748246e-15       2.463453099380e-13       0.000000000000e+00       1.028285025427e-10       1.100396846667e-11      -5.085506366982e-15 
   36       1.563018830502e-10       5.004806685569e-15       2.439021576711e-13       0.000000000000e+00       9.712364515318e-11       1.044215156070e-11      -5.437985593369e-15 
   37       1.588072249333e-10       5.496403722912e-15       2.404097666265e-13       0.000000000000e+00       9.182078142677e-11       9.922882666432e-12      -6.415513921066e-15 
   38       1.613466483576e-10       6.019355256236e-15       2.357507420864e-13       0.000000000000e+00       8.690560477706e-11       9.445032989441e-12      -7.724440551097e-15 
   39       1.639198451473e-10       6.574293821033e-15       2.297733686969e-13       0.000000000000e+00       8.236205726475e-11       9.004568609371e-12      -9.021541440661e-15 
   40       1.665205006997e-10       7.161776474029e-15       2.223022083186e-13       0.000000000000e+00       7.814618148510e-11       8.594078122558e-12      -9.886518277870e-15 
   41       1.691400905176e-10       7.782323135890e-15       2.131751949335e-13       0.000000000000e+00       7.420130270398e-11       8.205174626848e-12      -9.945686190047e-15 
   42       1.717822139444e-10       8.436558769067e-15       2.023733138582e-13       0.000000000000e+00       7.051535954421e-11       7.837318504264e-12      -9.303122055938e-15 
   43       1.744519058852e-10       9.125108985039e-15       1.899304269690e-13       0.000000000000e+00       6.707814722534e-11       7.491393148699e-12      -8.241705931971e-15 
   44       1.771513384351e-10       9.848558618636e-15       1.758992423463e-13       0.000000000000e+00       6.386412027410e-11       7.167174355274e-12      -7.110610891379e-15 
   45       1.798806679223e-10       1.060743688739e-14       1.603359356907e-13       0.000000000000e+00       6.084141472207e-11       6.863661627027e-12      -6.247982434898e-15 
   46       1.826415948999e-10       1.140217247186e-14       1.432460499641e-13       0.000000000000e+00       5.800500254132e-11       6.580418551583e-12      -5.712015395563e-15 
   47       1.854343509679e-10       1.223312147404e-14       1.246242135414e-13       0.000000000000e+00       5.535137637961e-11       6.316468314651e-12      -5.476262181633e-15 
   48       1.882564081718e-10       1.310057627724e-14       1.044692720999e-13       0.000000000000e+00       5.286855697987e-11       6.069829919153e-12      -5.503283644967e-15 
   49       1.911022410890e-10       1.400476273452e-14       8.278439556971e-14       0.000000000000e+00       5.053546446233e-11       5.837445946690e-12      -5.743953776074e-15 
   50       1.939658298828e-10       1.494586731934e-14       5.956760736618e-14       0.000000000000e+00       4.832821849934e-11       5.616053399985e-12      -6.140528403258e-15 
   51       1.968495224027e-10       1.592413378837e-14       3.478009331573e-14       0.000000000000e+00       4.624251352110e-11       5.405242493187e-12      -6.638446381266e-15 
   52       1.997571663520e-10       1.693978789684e-14       8.369475416750e-15       0.000000000000e+00       4.427623022926e-11       5.205103266884e-12      -7.176529824662e-15 
   53       2.026914722205e-10       1.799300836132e-14      -1.972169788947e-14       0.000000000000e+00       4.242274206006e-11       5.015327876335e-12      -7.682994192236e-15 
   54       2.056539043569e-10       1.908392545825e-14      -4.955629548436e-14       0.000000000000e+00       4.067061253200e-11       4.835182733221e-12      -8.074930111657e-15 
   55       2.086452000514e-10       2.021260884493e-14      -8.119113479742e-14       0.000000000000e+00       3.900705007570e-11       4.663774231563e-12      -8.281320411006e-15 
   56       2.116673273303e-10       2.137903069055e-14      -1.146384515759e-13       0.000000000000e+00       3.742997091363e-11       4.500987048296e-12      -8.319974169710e-15 
   57       2.147218227246e-10       2.258309093122e-14      -1.498954605111e-13       0.000000000000e+00       3.593840273940e-11       4.346730140783e-12      -8.238797112669e-15 
   58       2.178091232513e-10       2.382462546318e-14      -1.869552152332e-13       0.000000000000e+00       3.452883693028e-11       4.200647522392e-12      -8.094320987751e-15 
   59       2.209284819540e-10       2.510340432137e-14      -2.258064918478e-13       0.000000000000e+00       3.319507229039e-11       4.062101842589e-12      -7.952102346549e-15 
   60       2.240778834431e-10       2.641912985799e-14      -2.664336724729e-13       0.000000000000e+00       3.192805879372e-11       3.930157967029e-12      -7.887121325157e-15 
   61       2.272550646983e-10       2.777145895441e-14      -3.088199197971e-13       0.000000000000e+00       3.071839155939e-11       3.803845688435e-12      -7.965040829402e-15 
   62       2.304610362996e-10       2.916007960350e-14      -3.529577969007e-13       0.000000000000e+00       2.956480043406e-11       3.683053913701e-12      -8.180166307252e-15 
   63       2.336972052964e-10       3.058464836311e-14      -3.988408353500e-13       0.000000000000e+00       2.846729737900e-11       3.567808962689e-12      -8.504204649851e-15 
   64       2.369642912785e-10       3.204476680167e-14      -4.464604427172e-13       0.000000000000e+00       2.742462365212e-11       3.458005734969e-12      -8.903970591723e-15 
   65       2.402622769857e-10       3.353998043938e-14      -4.958058905389e-13       0.000000000000e+00       2.643417764091e-11       3.353400146518e-12      -9.341178206641e-15 
   66       2.435903589173e-10       3.506977768930e-14      -5.468643022748e-13       0.000000000000e+00       2.549194269541e-11       3.253601566425e-12      -9.772232403502e-15 
   67       2.469468979423e-10       3.663358879850e-14      -5.996206412657e-13       0.000000000000e+00       2.459241496116e-11       3.158065253582e-12      -1.014802042220e-14 
   68       2.503302351690e-10       3.823074677326e-14      -6.540582189294e-13       0.000000000000e+00       2.373006237488e-11       3.066242478598e-12      -1.042470334754e-14 
   69       2.537414419285e-10       3.986036332745e-14      -7.101603658389e-13       0.000000000000e+00       2.290420625931e-11       2.978083118511e-12      -1.059909589871e-14 
   70       2.571820408435e-10       4.152142578034e-14      -7.679090791720e-13       0.000000000000e+00       2.211500376872e-11       2.893621781865e-12      -1.068011388894e-14 
   71       2.606531630984e-10       4.321283085379e-14      -8.272845336754e-13       0.000000000000e+00       2.136197182970e-11       2.812825667035e-12      -1.067848002712e-14 
   72       2.641555211786e-10       4.493338264108e-14      -8.882650829276e-13       0.000000000000e+00       2.064395413428e-11       2.735591031797e-12      -1.060679674402e-14 
   73       2.676893816090e-10       4.668179057577e-14      -9.508272606032e-13       0.000000000000e+00       1.995908813303e-11       2.661739662900e-12      -1.047961901858e-14 
   74       2.712545376936e-10       4.845666740059e-14      -1.014945781736e-12       0.000000000000e+00       1.930477202823e-11       2.591015345632e-12      -1.031352720412e-14 
   75       2.748502822548e-10       5.025652713627e-14      -1.080593543985e-12       0.000000000000e+00       1.867763176696e-11       2.523080333389e-12      -1.012719985466e-14 
   76       2.784758659515e-10       5.207989451433e-14      -1.147740596204e-12       0.000000000000e+00       1.807435262255e-11       2.457599195651e-12      -9.937784972966e-15 
   77       2.821320289859e-10       5.392566080386e-14      -1.216350824239e-12       0.000000000000e+00       1.749442197117e-11       2.394515818186e-12      -9.749088822621e-15 
   78       2.858197004811e-10       5.579278948276e-14      -1.286384660261e-12       0.000000000000e+00       1.693782903069e-11       2.333820735769e-12      -9.561355592800e-15 
   79       2.895395206567e-10       5.768021078056e-14      -1.357800042247e-12       0.000000000000e+00       1.640422961279e-11       2.275466524393e-12      -9.374774874122e-15 
   80       2.932918235258e-10       5.958682193294e-14      -1.430552394068e-12       0.000000000000e+00       1.589293084514e-11       2.219366062603e-12      -9.189478581050e-15 
   81       2.970766195902e-10       6.151148743627e-14      -1.504594605580e-12       0.000000000000e+00       1.540287589364e-11       2.165390792833e-12      -9.005537874295e-15 
   82       3.008935785380e-10       6.345303930207e-14      -1.579877012707e-12       0.000000000000e+00       1.493262868460e-11       2.113368982738e-12      -8.822960083209e-15 
   83       3.047420119389e-10       6.541027731159e-14      -1.656347377531e-12       0.000000000000e+00       1.448035862696e-11       2.063083986530e-12      -8.641685628188e-15 
   84       3.086211917306e-10       6.738192508232e-14      -1.733952858646e-12       0.000000000000e+00       1.404428203465e-11       2.014329060508e-12      -8.461868002919e-15 
   85       3.125314042437e-10       6.936648934186e-14      -1.812646341137e-12       0.000000000000e+00       1.362410393964e-11       1.967086059191e-12      -8.284773792478e-15 
   86       3.164730399986e-10       7.136237768282e-14      -1.892381124352e-12       0.000000000000e+00       1.321978840124e-11       1.921373313200e-12      -8.112026910262e-15 
   87       3.204462619637e-10       7.336794019560e-14      -1.973109038266e-12       0.000000000000e+00       1.283111556758e-11       1.877190932419e-12      -7.945340459025e-15 
   88       3.244509938953e-10       7.538146898024e-14      -2.054780457028e-12       0.000000000000e+00       1.245767407350e-11       1.834520017824e-12      -7.786518410581e-15 
   89       3.284869086776e-10       7.740119765830e-14      -2.137344312492e-12       0.000000000000e+00       1.209885343838e-11       1.793321873306e-12      -7.637457285514e-15 
   90       3.325534166621e-10       7.942530088467e-14      -2.220748107757e-12       0.000000000000e+00       1.175383646398e-11       1.753537217497e-12      -7.500147832885e-15 
   91       3.366496540079e-10       8.145189385950e-14      -2.304937930706e-12       0.000000000000e+00       1.142159163224e-11       1.715085395597e-12      -7.376676709940e-15 
   92       3.407744710213e-10       8.347903184003e-14      -2.389858467539e-12       0.000000000000e+00       1.110086550321e-11       1.677863591195e-12      -7.269228161816e-15 
   93       3.449267772020e-10       8.550477460403e-14      -2.475453095755e-12       0.000000000000e+00       1.079047799629e-11       1.641772325485e-12      -7.179452591138e-15 
   94       3.491066610704e-10       8.752739199097e-14      -2.561664149673e-12       0.000000000000e+00       1.049027554754e-11       1.606798053796e-12      -7.106459985224e-15 
   95       3.533144179879e-10       8.954518851559e-14      -2.648432720062e-12       0.000000000000e+00       1.020030791876e-11       1.572941592129e-12      -7.048526401560e-15 
   96       3.575502017836e-10       9.155644156880e-14      -2.735698592686e-12       0.000000000000e+00       9.920534688801e-12       1.540192515044e-12      -7.003693271005e-15 
   97       3.618140179915e-10       9.355940182107e-14      -2.823400262936e-12       0.000000000000e+00       9.650821809038e-12       1.508528728320e-12      -6.969760386900e-15 
   98       3.661057170862e-10       9.555229362595e-14      -2.911474950455e-12       0.000000000000e+00       9.390938158876e-12       1.477916041631e-12      -6.944278894180e-15 
   99       3.704249877193e-10       9.753331542343e-14      -2.999858613767e-12       0.000000000000e+00       9.140552101198e-12       1.448307741209e-12      -6.924544278478e-15 
  100       3.747713499559e-10       9.950064014344e-14      -3.088485964905e-12       0.000000000000e+00       8.899228037843e-12       1.419644162513e-12      -6.907589355238e-15 
  101       3.791441485109e-10       1.014524156093e-13      -3.177290484038e-12       0.000000000000e+00       8.666422965080e-12       1.391852262901e-12      -6.890177258821e-15 
  102       3.835425459849e-10       1.033867649410e-13      -3.266204434101e-12       0.000000000000e+00       8.441483029081e-12       1.364845194291e-12      -6.868794431612e-15 
  103       3.879655161011e-10       1.053017869590e-13      -3.355158875422e-12       0.000000000000e+00       8.223640081391e-12       1.338521875836e-12      -6.839643613137e-15 
  104       3.924120580113e-10       1.071955950924e-13      -3.444084388993e-12       0.000000000000e+00       8.012184692336e-12       1.312790843343e-12      -6.799496844485e-15 
  105       3.968818867548e-10       1.090664392220e-13      -3.532913326069e-12       0.000000000000e+00       7.807019227655e-12       1.287646387101e-12      -6.748400813456e-15 
  106       4.013748238953e-10       1.109126011255e-13      -3.621577891142e-12       0.000000000000e+00       7.608173410682e-12       1.263101950376e-12      -6.687325593095e-15 
  107       4.058905804974e-10       1.127323582585e-13      -3.710009482579e-12       0.000000000000e+00       7.415633048880e-12       1.239166612485e-12      -6.617339671173e-15 
