# Matter power spectrum P(k) at redshift z=5
# for k=1.03708e-05 to 1004.54 h/Mpc,
# number of wavenumbers equal to 626
#    1:k (h/Mpc)              2:P (Mpc/h)^3        
       1.037084025954e-05       2.069655533748e+00 
       2.350783343365e-05       4.628766462670e+00 
       3.669207989643e-05       7.168093150302e+00 
       4.996047830342e-05       9.704655510276e+00 
       6.335055460381e-05       1.225001392834e+01 
       7.690081002873e-05       1.481390593065e+01 
       9.065108053222e-05       1.740533667917e+01 
       1.046429126454e-04       2.003306101850e+01 
       1.189199607415e-04       2.270585520438e+01 
       1.335284107432e-04       2.543270180357e+01 
       1.485174353032e-04       2.822293317900e+01 
       1.639396854033e-04       3.108635763317e+01 
       1.798518230764e-04       3.403337625596e+01 
       1.963150994787e-04       3.707509885151e+01 
       2.133959816872e-04       4.022345992697e+01 
       2.311668302169e-04       4.349133896467e+01 
       2.497066271193e-04       4.689268343834e+01 
       2.691017513641e-04       5.044263570164e+01 
       2.894467936671e-04       5.415766056790e+01 
       3.108453966031e-04       5.805567256033e+01 
       3.334110972519e-04       6.215615552762e+01 
       3.572681382947e-04       6.648026912224e+01 
       3.825521989702e-04       7.105093238154e+01 
       4.094109794171e-04       7.589286919588e+01 
       4.380045508699e-04       8.103260120127e+01 
       4.685053609261e-04       8.649836504938e+01 
       5.010977598240e-04       9.231992983733e+01 
       5.359768941802e-04       9.852828843817e+01 
       5.733468048383e-04       1.051551922713e+02 
       6.134175733447e-04       1.122325056363e+02 
       6.564013965590e-04       1.197913663597e+02 
       7.025075400686e-04       1.278611486491e+02 
       7.519362337995e-04       1.364682520810e+02 
       8.048717247371e-04       1.456347748885e+02 
       8.614748765506e-04       1.553771513958e+02 
       9.218758739237e-04       1.657048782890e+02 
       9.861677084840e-04       1.766194540286e+02 
       1.054401149639e-03       1.881136786867e+02 
       1.126581807468e-03       2.001714063040e+02 
       1.202669675553e-03       2.127678129820e+02 
       1.282581235175e-03       2.258701705651e+02 
       1.366193873776e-03       2.394390423330e+02 
       1.453352093645e-03       2.534297803941e+02 
       1.543874818574e-03       2.677941651580e+02 
       1.637563069718e-03       2.824820328395e+02 
       1.734207363089e-03       2.974427623808e+02 
       1.833594340191e-03       3.126265398534e+02 
       1.935512332119e-03       3.279853556877e+02 
       2.039755735168e-03       3.434737215724e+02 
       2.146128216934e-03       3.590491395751e+02 
       2.254444866528e-03       3.746720605698e+02 
       2.364533453504e-03       3.903067011207e+02 
       2.476234976412e-03       4.059207968152e+02 
       2.589403674793e-03       4.214850875632e+02 
       2.703906657843e-03       4.369734697309e+02 
       2.819623276667e-03       4.523627349204e+02 
       2.936444340157e-03       4.676324207343e+02 
       3.054271249918e-03       4.827646297852e+02 
       3.173015108858e-03       4.977436781744e+02 
       3.292595841196e-03       5.125560952189e+02 
       3.412941348707e-03       5.271901989248e+02 
       3.533986718268e-03       5.416360394576e+02 
       3.655673488777e-03       5.558851516877e+02 
       3.777948980598e-03       5.699304228649e+02 
       3.900765687365e-03       5.837658791379e+02 
       4.024080727862e-03       5.973865125325e+02 
       4.147855354391e-03       6.107883598193e+02 
       4.272054513371e-03       6.239682884682e+02 
       4.396646453625e-03       6.369237708672e+02 
       4.521602377807e-03       6.496530469661e+02 
       4.646896132584e-03       6.621549115541e+02 
       4.772503933447e-03       6.744286863903e+02 
       4.898404120356e-03       6.864742107991e+02 
       5.024576940744e-03       6.982915988457e+02 
       5.151004356762e-03       7.098813808903e+02 
       5.277669873967e-03       7.212444674695e+02 
       5.404558388958e-03       7.323817630079e+02 
       5.531656053750e-03       7.432949683931e+02 
       5.658950154934e-03       7.539854163234e+02 
       5.786429005896e-03       7.644548053924e+02 
       5.914081850578e-03       7.747051381238e+02 
       6.041898777443e-03       7.847381431536e+02 
       6.169870642470e-03       7.945561687154e+02 
       6.297989000146e-03       8.041614570247e+02 
       6.426246041543e-03       8.135560321659e+02 
       6.554634538687e-03       8.227423871369e+02 
       6.683147794509e-03       8.317229726949e+02 
       6.811779597769e-03       8.405000729650e+02 
       6.940524182392e-03       8.490762572708e+02 
       7.069376190757e-03       8.574544814710e+02 
       7.198330640496e-03       8.656366153768e+02 
       7.327382894438e-03       8.736255221938e+02 
       7.456528633367e-03       8.814236153917e+02 
       7.585763831294e-03       8.890331289168e+02 
       7.715084732992e-03       8.964571058516e+02 
       7.844487833559e-03       9.036980582382e+02 
       7.973969859803e-03       9.107581236618e+02 
       8.103527753271e-03       9.176397602596e+02 
       8.233158654757e-03       9.243455882035e+02 
       8.362859890148e-03       9.308782682096e+02 
       8.492628957469e-03       9.372393013709e+02 
       8.622463515031e-03       9.434321754893e+02 
       8.752361370560e-03       9.494591299469e+02 
       8.882320471224e-03       9.553219977578e+02 
       9.012338894475e-03       9.610232424126e+02 
       9.142414839628e-03       9.665652344599e+02 
       9.272546620120e-03       9.719502984282e+02 
       9.402732656372e-03       9.771804251403e+02 
       9.532971469217e-03       9.822581273481e+02 
       9.663261673838e-03       9.871854128102e+02 
       9.793601974169e-03       9.919643044599e+02 
       9.923991157724e-03       9.965970456779e+02 
       1.005442809082e-02       1.001085723858e+03 
       1.018491171415e-02       1.005432337902e+03 
       1.031544103870e-02       1.009639204961e+03 
       1.044601514194e-02       1.013707812730e+03 
       1.057663316434e-02       1.017640217722e+03 
       1.070729430608e-02       1.021440577144e+03 
       1.083799782404e-02       1.025107013356e+03 
       1.096874302903e-02       1.028643089910e+03 
       1.109952928310e-02       1.032050636499e+03 
       1.123035599723e-02       1.035331912056e+03 
       1.136122262898e-02       1.038487765303e+03 
       1.149212868049e-02       1.041520996723e+03 
       1.162307369646e-02       1.044432977343e+03 
       1.175405726241e-02       1.047224855357e+03 
       1.188507900295e-02       1.049899344065e+03 
       1.201613858026e-02       1.052457134958e+03 
       1.214723569261e-02       1.054900543914e+03 
       1.227837007303e-02       1.057231194930e+03 
       1.240954148805e-02       1.059450136987e+03 
       1.254074973651e-02       1.061559237928e+03 
       1.267199464853e-02       1.063560314390e+03 
       1.280327608447e-02       1.065454837671e+03 
       1.293459393400e-02       1.067243763833e+03 
       1.306594811524e-02       1.068929621543e+03 
       1.319733857396e-02       1.070513187041e+03 
       1.332876528286e-02       1.071996046802e+03 
       1.346022824085e-02       1.073379664383e+03 
       1.359172747244e-02       1.074665531399e+03 
       1.372326302717e-02       1.075854957777e+03 
       1.385483497905e-02       1.076949621324e+03 
       1.398644342610e-02       1.077950873863e+03 
       1.411808848988e-02       1.078859637850e+03 
       1.424977031510e-02       1.079678075793e+03 
       1.438148906924e-02       1.080406586042e+03 
       1.451324494222e-02       1.081046949871e+03 
       1.464503814612e-02       1.081600524748e+03 
       1.477686891488e-02       1.082068274223e+03 
       1.490873750409e-02       1.082451979806e+03 
       1.504064419080e-02       1.082752477362e+03 
       1.517258927328e-02       1.082971390852e+03 
       1.530457307094e-02       1.083109671376e+03 
       1.543659592419e-02       1.083168815876e+03 
       1.556865819430e-02       1.083149628394e+03 
       1.570076026339e-02       1.083053528030e+03 
       1.583290253432e-02       1.082882257630e+03 
       1.596508543072e-02       1.082636129343e+03 
       1.609730939692e-02       1.082316691501e+03 
       1.622957489802e-02       1.081925638611e+03 
       1.636188241988e-02       1.081462823634e+03 
       1.649423246924e-02       1.080930738412e+03 
       1.662662557371e-02       1.080329450883e+03 
       1.675906228194e-02       1.079660894135e+03 
       1.689154316368e-02       1.078925156499e+03 
       1.702406880994e-02       1.078124472947e+03 
       1.715663983313e-02       1.077259477206e+03 
       1.728925686723e-02       1.076330961180e+03 
       1.742192056798e-02       1.075340708878e+03 
       1.755463161305e-02       1.074288768006e+03 
       1.768739070232e-02       1.073176303923e+03 
       1.782019855804e-02       1.072004940630e+03 
       1.795305592514e-02       1.070775492901e+03 
       1.808596357150e-02       1.069489574256e+03 
       1.821892228817e-02       1.068145984860e+03 
       1.835193288976e-02       1.066747634995e+03 
       1.848499621471e-02       1.065295802280e+03 
       1.861811312563e-02       1.063789980078e+03 
       1.875128450965e-02       1.062231205451e+03 
       1.888451127882e-02       1.060622659758e+03 
       1.901779437047e-02       1.058961847888e+03 
       1.915113474760e-02       1.057252942970e+03 
       1.928453339936e-02       1.055493737659e+03 
       1.941799134141e-02       1.053687962718e+03 
       1.955150961644e-02       1.051834841845e+03 
       1.968508929463e-02       1.049935402521e+03 
       1.981873147411e-02       1.047991910462e+03 
       1.995243728151e-02       1.046002724916e+03 
       2.008620787249e-02       1.043969946232e+03 
       2.022004443225e-02       1.041895108933e+03 
       2.035394817614e-02       1.039778325517e+03 
       2.048792035022e-02       1.037620178306e+03 
       2.062196223189e-02       1.035421993978e+03 
       2.075607513051e-02       1.033183422146e+03 
       2.089026038805e-02       1.030908772416e+03 
       2.102451937975e-02       1.028593396949e+03 
       2.115885351484e-02       1.026243752105e+03 
       2.129326423724e-02       1.023856098282e+03 
       2.142775302629e-02       1.021431978389e+03 
       2.156232139754e-02       1.018974661716e+03 
       2.169697090351e-02       1.016483854607e+03 
       2.183170313451e-02       1.013958177724e+03 
       2.196651971951e-02       1.011400041445e+03 
       2.210142232696e-02       1.008811818704e+03 
       2.223641266569e-02       1.006191916777e+03 
       2.237149248585e-02       1.003539666668e+03 
       2.250666357986e-02       1.000859714515e+03 
       2.264192778336e-02       9.981522177031e+02 
       2.277728697625e-02       9.954124606235e+02 
       2.291274308369e-02       9.926466145321e+02 
       2.304829807723e-02       9.898563583785e+02 
       2.318395397585e-02       9.870379835651e+02 
       2.331971284718e-02       9.841935814515e+02 
       2.345557680858e-02       9.813268335174e+02 
       2.359154802844e-02       9.784332182111e+02 
       2.372762872737e-02       9.755150954200e+02 
       2.386382117954e-02       9.725775454624e+02 
       2.400012771397e-02       9.696158547210e+02 
       2.413655071591e-02       9.666325404428e+02 
       2.427309262829e-02       9.636272932842e+02 
       2.440975595314e-02       9.606028343549e+02 
       2.454654325311e-02       9.575580174656e+02 
       2.468345715306e-02       9.544948956236e+02 
       2.482050034159e-02       9.514109269836e+02 
       2.495767557279e-02       9.483132194694e+02 
       2.509498566789e-02       9.451948769681e+02 
       2.523243351705e-02       9.420600318272e+02 
       2.537002208116e-02       9.389071305288e+02 
       2.550775439377e-02       9.357432204804e+02 
       2.564563356300e-02       9.325591205133e+02 
       2.578366277357e-02       9.293620580510e+02 
       2.592184528888e-02       9.261507973741e+02 
       2.606018445314e-02       9.229265251842e+02 
       2.619868369362e-02       9.196894562178e+02 
       2.633734652290e-02       9.164381070004e+02 
       2.647617654132e-02       9.131746176616e+02 
       2.661517743936e-02       9.099011190951e+02 
       2.675435300023e-02       9.066147162278e+02 
       2.689370710247e-02       9.033203168835e+02 
       2.703324372269e-02       9.000127908484e+02 
       2.717296693837e-02       8.966971850341e+02 
       2.731288093082e-02       8.933699148878e+02 
       2.745298998813e-02       8.900373416199e+02 
       2.759329850835e-02       8.866954255697e+02 
       2.773381100272e-02       8.833432036267e+02 
       2.787453209902e-02       8.799834108921e+02 
       2.801546654506e-02       8.766183732582e+02 
       2.815661921230e-02       8.732448381846e+02 
       2.829799509957e-02       8.698669206896e+02 
       2.843959933697e-02       8.664826936053e+02 
       2.858143718990e-02       8.630912669520e+02 
       2.872351406323e-02       8.596968724381e+02 
       2.886583550567e-02       8.562948458959e+02 
       2.900840721426e-02       8.528908388577e+02 
       2.915123503905e-02       8.494825915988e+02 
       2.929432498798e-02       8.460686806279e+02 
       2.943768323195e-02       8.426522960876e+02 
       2.958131611005e-02       8.392321908148e+02 
       2.972523013505e-02       8.358121682560e+02 
       2.986943199909e-02       8.323878823355e+02 
       3.001392857962e-02       8.289599977730e+02 
       3.015872694553e-02       8.255305484958e+02 
       3.030383436359e-02       8.221008911366e+02 
       3.044925830513e-02       8.186675590285e+02 
       3.059500645302e-02       8.152358734257e+02 
       3.074108670894e-02       8.118011573749e+02 
       3.088750720093e-02       8.083690080785e+02 
       3.103427629130e-02       8.049362685352e+02 
       3.118140258488e-02       8.015026743834e+02 
       3.132889493761e-02       7.980695197978e+02 
       3.147676246556e-02       7.946385494377e+02 
       3.162501455426e-02       7.912038441205e+02 
       3.177366086858e-02       7.877741700824e+02 
       3.192271136292e-02       7.843432704677e+02 
       3.207217629197e-02       7.809190003854e+02 
       3.222206622192e-02       7.774885851749e+02 
       3.237239204222e-02       7.740656833400e+02 
       3.252316497785e-02       7.706435739541e+02 
       3.267439660224e-02       7.672245458758e+02 
       3.282609885074e-02       7.638093371750e+02 
       3.297828403480e-02       7.603940713672e+02 
       3.313096485683e-02       7.569838658186e+02 
       3.328415442576e-02       7.535759213123e+02 
       3.343786627340e-02       7.501697179991e+02 
       3.359211437169e-02       7.467676609806e+02 
       3.374691315069e-02       7.433699698104e+02 
       3.390227751763e-02       7.399742260258e+02 
       3.405822287688e-02       7.365861063738e+02 
       3.421476515097e-02       7.331987879415e+02 
       3.437192080278e-02       7.298148616454e+02 
       3.452970685885e-02       7.264373400999e+02 
       3.468814093398e-02       7.230644567594e+02 
       3.484724125724e-02       7.196945480007e+02 
       3.500702669930e-02       7.163288352344e+02 
       3.516751680141e-02       7.129692701072e+02 
       3.532873180595e-02       7.096153466172e+02 
       3.549069268876e-02       7.062631511634e+02 
       3.565342119332e-02       7.029176780591e+02 
       3.581693986699e-02       6.995758624946e+02 
       3.598127209929e-02       6.962401489842e+02 
       3.614644216263e-02       6.929068784555e+02 
       3.631247525534e-02       6.895799357692e+02 
       3.647939754751e-02       6.862613893523e+02 
       3.664723622955e-02       6.829446210862e+02 
       3.681601956386e-02       6.796336134272e+02 
       3.698577693982e-02       6.763283931761e+02 
       3.715653893227e-02       6.730273565931e+02 
       3.732833736383e-02       6.697292437890e+02 
       3.750120537139e-02       6.664415912061e+02 
       3.767517747695e-02       6.631560679910e+02 
       3.785028966343e-02       6.598749696796e+02 
       3.802657945550e-02       6.566001138050e+02 
       3.820408600622e-02       6.533288834806e+02 
       3.838285018971e-02       6.500642552915e+02 
       3.856291470048e-02       6.468005345482e+02 
       3.874432415999e-02       6.435467567079e+02 
       3.892712523101e-02       6.402942620424e+02 
       3.911136674063e-02       6.370474255343e+02 
       3.929709981249e-02       6.338065172861e+02 
       3.948437800922e-02       6.305694465124e+02 
       3.967325748602e-02       6.273358359255e+02 
       3.986379715640e-02       6.241049148693e+02 
       4.005605887126e-02       6.208803305615e+02 
       4.025010761258e-02       6.176563123492e+02 
       4.044601170322e-02       6.144391375370e+02 
       4.064384303440e-02       6.112230026627e+02 
       4.084367731267e-02       6.080125963708e+02 
       4.104559432841e-02       6.048029956867e+02 
       4.124967824809e-02       6.015982162087e+02 
       4.145601793289e-02       5.983968203176e+02 
       4.166470728644e-02       5.951934372602e+02 
       4.187584563508e-02       5.919929313444e+02 
       4.208953814411e-02       5.887959269657e+02 
       4.230589627431e-02       5.856008365433e+02 
       4.252503828332e-02       5.824058944413e+02 
       4.274708977731e-02       5.792128804425e+02 
       4.297218431892e-02       5.760168406133e+02 
       4.320046409854e-02       5.728238119537e+02 
       4.343208067680e-02       5.696273821008e+02 
       4.366719580737e-02       5.664339488619e+02 
       4.390598235074e-02       5.632337498888e+02 
       4.414862529088e-02       5.600356834600e+02 
       4.439532286905e-02       5.568333994691e+02 
       4.464628785077e-02       5.536277434972e+02 
       4.490174894506e-02       5.504189642523e+02 
       4.516195239794e-02       5.472040858829e+02 
       4.542716378606e-02       5.439860917563e+02 
       4.569767004075e-02       5.407616145426e+02 
       4.597378173816e-02       5.375294145649e+02 
       4.625583569784e-02       5.342890565211e+02 
       4.654419793966e-02       5.310408497904e+02 
       4.683926705865e-02       5.277818124204e+02 
       4.714147808905e-02       5.245116648168e+02 
       4.745130694262e-02       5.212285706970e+02 
       4.776927552420e-02       5.179329913964e+02 
       4.809595764838e-02       5.146198972564e+02 
       4.843198590815e-02       5.112914706062e+02 
       4.877805967897e-02       5.079442194693e+02 
       4.913495448313e-02       5.045747301394e+02 
       4.950353299061e-02       5.011825931934e+02 
       4.988475799767e-02       4.977638556365e+02 
       5.027970780617e-02       4.943168889260e+02 
       5.068959453058e-02       4.908387784676e+02 
       5.111578599124e-02       4.873248742150e+02 
       5.155983202090e-02       4.837705668766e+02 
       5.202349622514e-02       4.801736338439e+02 
       5.250879451066e-02       4.765263515686e+02 
       5.301804204161e-02       4.728219255392e+02 
       5.355391072100e-02       4.690548095910e+02 
       5.411949983847e-02       4.652142805985e+02 
       5.471842318629e-02       4.612925495742e+02 
       5.535491671702e-02       4.572727676261e+02 
       5.603397164363e-02       4.531415911980e+02 
       5.676149861932e-02       4.488784111457e+02 
       5.754452892612e-02       4.444570178749e+02 
       5.839145769989e-02       4.398455475728e+02 
       5.931233061232e-02       4.350018767145e+02 
       6.031916622879e-02       4.298706499871e+02 
       6.142628627516e-02       4.243784842504e+02 
       6.265058679972e-02       4.184297318460e+02 
       6.401161322377e-02       4.118893406196e+02 
