# Matter power spectrum P(k) at redshift z=4
# for k=1.03708e-05 to 1004.54 h/Mpc,
# number of wavenumbers equal to 626
#    1:k (h/Mpc)              2:P (Mpc/h)^3        
       1.037084025954e-05       2.975544348989e+00 
       2.350783343365e-05       6.654775993554e+00 
       3.669207989643e-05       1.030555717238e+01 
       4.996047830342e-05       1.395235378459e+01 
       6.335055460381e-05       1.761178208138e+01 
       7.690081002873e-05       2.129783741094e+01 
       9.065108053222e-05       2.502346181107e+01 
       1.046429126454e-04       2.880123665822e+01 
       1.189199607415e-04       3.264377359870e+01 
       1.335284107432e-04       3.656397975028e+01 
       1.485174353032e-04       4.057526419410e+01 
       1.639396854033e-04       4.469171875270e+01 
       1.798518230764e-04       4.892828585864e+01 
       1.963150994787e-04       5.330092473568e+01 
       2.133959816872e-04       5.782677785183e+01 
       2.311668302169e-04       6.252434317043e+01 
       2.497066271193e-04       6.741365040440e+01 
       2.691017513641e-04       7.251644253069e+01 
       2.894467936671e-04       7.785635858655e+01 
       3.108453966031e-04       8.345911495466e+01 
       3.334110972519e-04       8.935267631823e+01 
       3.572681382947e-04       9.556740717313e+01 
       3.825521989702e-04       1.021361896255e+02 
       4.094109794171e-04       1.090944870080e+02 
       4.380045508699e-04       1.164803309529e+02 
       4.685053609261e-04       1.243341998179e+02 
       5.010977598240e-04       1.326987536859e+02 
       5.359768941802e-04       1.416183874288e+02 
       5.733468048383e-04       1.511385603223e+02 
       6.134175733447e-04       1.613048668019e+02 
       6.564013965590e-04       1.721618300642e+02 
       7.025075400686e-04       1.837514144143e+02 
       7.519362337995e-04       1.961112916989e+02 
       8.048717247371e-04       2.092729449778e+02 
       8.614748765506e-04       2.232597259367e+02 
       9.218758739237e-04       2.380850454073e+02 
       9.861677084840e-04       2.537508736506e+02 
       1.054401149639e-03       2.702467591429e+02 
       1.126581807468e-03       2.875494967499e+02 
       1.202669675553e-03       3.056235277216e+02 
       1.282581235175e-03       3.244220568818e+02 
       1.366193873776e-03       3.438887582599e+02 
       1.453352093645e-03       3.639598996298e+02 
       1.543874818574e-03       3.845666569291e+02 
       1.637563069718e-03       4.056374028010e+02 
       1.734207363089e-03       4.270997935224e+02 
       1.833594340191e-03       4.488825440680e+02 
       1.935512332119e-03       4.709168375689e+02 
       2.039755735168e-03       4.931373513667e+02 
       2.146128216934e-03       5.154829486679e+02 
       2.254444866528e-03       5.378966550822e+02 
       2.364533453504e-03       5.603268749236e+02 
       2.476234976412e-03       5.827270817034e+02 
       2.589403674793e-03       6.050551149012e+02 
       2.703906657843e-03       6.272734192402e+02 
       2.819623276667e-03       6.493486724364e+02 
       2.936444340157e-03       6.712515580004e+02 
       3.054271249918e-03       6.929564800942e+02 
       3.173015108858e-03       7.144410303780e+02 
       3.292595841196e-03       7.356859624595e+02 
       3.412941348707e-03       7.566745637039e+02 
       3.533986718268e-03       7.773925678060e+02 
       3.655673488777e-03       7.978278047364e+02 
       3.777948980598e-03       8.179700247167e+02 
       3.900765687365e-03       8.378106082809e+02 
       4.024080727862e-03       8.573423345981e+02 
       4.147855354391e-03       8.765595076912e+02 
       4.272054513371e-03       8.954576509352e+02 
       4.396646453625e-03       9.140331818877e+02 
       4.521602377807e-03       9.322836354900e+02 
       4.646896132584e-03       9.502073482168e+02 
       4.772503933447e-03       9.678034055264e+02 
       4.898404120356e-03       9.850716230120e+02 
       5.024576940744e-03       1.002012192750e+03 
       5.151004356762e-03       1.018625889465e+03 
       5.277669873967e-03       1.034914024667e+03 
       5.404558388958e-03       1.050877898338e+03 
       5.531656053750e-03       1.066519957402e+03 
       5.658950154934e-03       1.081842128728e+03 
       5.786429005896e-03       1.096846872710e+03 
       5.914081850578e-03       1.111537092483e+03 
       6.041898777443e-03       1.125915301314e+03 
       6.169870642470e-03       1.139984898515e+03 
       6.297989000146e-03       1.153749126888e+03 
       6.426246041543e-03       1.167210906128e+03 
       6.554634538687e-03       1.180373843766e+03 
       6.683147794509e-03       1.193241429260e+03 
       6.811779597769e-03       1.205816933571e+03 
       6.940524182392e-03       1.218104038133e+03 
       7.069376190757e-03       1.230107018041e+03 
       7.198330640496e-03       1.241828560125e+03 
       7.327382894438e-03       1.253272787734e+03 
       7.456528633367e-03       1.264443173266e+03 
       7.585763831294e-03       1.275342956934e+03 
       7.715084732992e-03       1.285976512534e+03 
       7.844487833559e-03       1.296347454877e+03 
       7.973969859803e-03       1.306458853423e+03 
       8.103527753271e-03       1.316314241437e+03 
       8.233158654757e-03       1.325917377175e+03 
       8.362859890148e-03       1.335272080333e+03 
       8.492628957469e-03       1.344380519774e+03 
       8.622463515031e-03       1.353247703966e+03 
       8.752361370560e-03       1.361876855786e+03 
       8.882320471224e-03       1.370270618627e+03 
       9.012338894475e-03       1.378432535901e+03 
       9.142414839628e-03       1.386366019633e+03 
       9.272546620120e-03       1.394074411935e+03 
       9.402732656372e-03       1.401560575875e+03 
       9.532971469217e-03       1.408828134240e+03 
       9.663261673838e-03       1.415880075903e+03 
       9.793601974169e-03       1.422721436658e+03 
       9.923991157724e-03       1.429351114920e+03 
       1.005442809082e-02       1.435774223228e+03 
       1.018491171415e-02       1.441993577207e+03 
       1.031544103870e-02       1.448012499162e+03 
       1.044601514194e-02       1.453833126966e+03 
       1.057663316434e-02       1.459458527152e+03 
       1.070729430608e-02       1.464891570653e+03 
       1.083799782404e-02       1.470135154884e+03 
       1.096874302903e-02       1.475191621258e+03 
       1.109952928310e-02       1.480063778753e+03 
       1.123035599723e-02       1.484754891747e+03 
       1.136122262898e-02       1.489266183668e+03 
       1.149212868049e-02       1.493601674081e+03 
       1.162307369646e-02       1.497763329688e+03 
       1.175405726241e-02       1.501752798251e+03 
       1.188507900295e-02       1.505573969927e+03 
       1.201613858026e-02       1.509227834756e+03 
       1.214723569261e-02       1.512717711453e+03 
       1.227837007303e-02       1.516045926264e+03 
       1.240954148805e-02       1.519213982766e+03 
       1.254074973651e-02       1.522224558684e+03 
       1.267199464853e-02       1.525080260167e+03 
       1.280327608447e-02       1.527783199476e+03 
       1.293459393400e-02       1.530334752514e+03 
       1.306594811524e-02       1.532738547156e+03 
       1.319733857396e-02       1.534995704548e+03 
       1.332876528286e-02       1.537108506033e+03 
       1.346022824085e-02       1.539079055391e+03 
       1.359172747244e-02       1.540909500958e+03 
       1.372326302717e-02       1.542601799844e+03 
       1.385483497905e-02       1.544158236960e+03 
       1.398644342610e-02       1.545580750034e+03 
       1.411808848988e-02       1.546870652461e+03 
       1.424977031510e-02       1.548031069977e+03 
       1.438148906924e-02       1.549062620469e+03 
       1.451324494222e-02       1.549967832557e+03 
       1.464503814612e-02       1.550748671210e+03 
       1.477686891488e-02       1.551406491589e+03 
       1.490873750409e-02       1.551943873164e+03 
       1.504064419080e-02       1.552362012716e+03 
       1.517258927328e-02       1.552663237316e+03 
       1.530457307094e-02       1.552848915036e+03 
       1.543659592419e-02       1.552921193756e+03 
       1.556865819430e-02       1.552881232669e+03 
       1.570076026339e-02       1.552731063670e+03 
       1.583290253432e-02       1.552473193761e+03 
       1.596508543072e-02       1.552108067285e+03 
       1.609730939692e-02       1.551637908745e+03 
       1.622957489802e-02       1.551065148708e+03 
       1.636188241988e-02       1.550389577127e+03 
       1.649423246924e-02       1.549614771344e+03 
       1.662662557371e-02       1.548740829754e+03 
       1.675906228194e-02       1.547770524007e+03 
       1.689154316368e-02       1.546703980002e+03 
       1.702406880994e-02       1.545544406654e+03 
       1.715663983313e-02       1.544292709414e+03 
       1.728925686723e-02       1.542950032451e+03 
       1.742192056798e-02       1.541518922197e+03 
       1.755463161305e-02       1.539999455292e+03 
       1.768739070232e-02       1.538393301279e+03 
       1.782019855804e-02       1.536702788584e+03 
       1.795305592514e-02       1.534929085326e+03 
       1.808596357150e-02       1.533074502751e+03 
       1.821892228817e-02       1.531137323904e+03 
       1.835193288976e-02       1.529121718699e+03 
       1.848499621471e-02       1.527029517779e+03 
       1.861811312563e-02       1.524859999480e+03 
       1.875128450965e-02       1.522614646033e+03 
       1.888451127882e-02       1.520298020108e+03 
       1.901779437047e-02       1.517906543175e+03 
       1.915113474760e-02       1.515446199838e+03 
       1.928453339936e-02       1.512913825169e+03 
       1.941799134141e-02       1.510314764203e+03 
       1.955150961644e-02       1.507647910820e+03 
       1.968508929463e-02       1.504914734851e+03 
       1.981873147411e-02       1.502118485241e+03 
       1.995243728151e-02       1.499256809328e+03 
       2.008620787249e-02       1.496332721833e+03 
       2.022004443225e-02       1.493348421866e+03 
       2.035394817614e-02       1.490304069837e+03 
       2.048792035022e-02       1.487200504558e+03 
       2.062196223189e-02       1.484039627737e+03 
       2.075607513051e-02       1.480820939641e+03 
       2.089026038805e-02       1.477550618431e+03 
       2.102451937975e-02       1.474222003698e+03 
       2.115885351484e-02       1.470844350614e+03 
       2.129326423724e-02       1.467412304624e+03 
       2.142775302629e-02       1.463928079997e+03 
       2.156232139754e-02       1.460396360593e+03 
       2.169697090351e-02       1.456816724545e+03 
       2.183170313451e-02       1.453187205366e+03 
       2.196651971951e-02       1.449511257335e+03 
       2.210142232696e-02       1.445792277873e+03 
       2.223641266569e-02       1.442027995767e+03 
       2.237149248585e-02       1.438217450592e+03 
       2.250666357986e-02       1.434367298560e+03 
       2.264192778336e-02       1.430477776379e+03 
       2.277728697625e-02       1.426542123833e+03 
       2.291274308369e-02       1.422569182669e+03 
       2.304829807723e-02       1.418561370153e+03 
       2.318395397585e-02       1.414513368387e+03 
       2.331971284718e-02       1.410428171928e+03 
       2.345557680858e-02       1.406311068686e+03 
       2.359154802844e-02       1.402155573720e+03 
       2.372762872737e-02       1.397965071297e+03 
       2.386382117954e-02       1.393746840123e+03 
       2.400012771397e-02       1.389494133807e+03 
       2.413655071591e-02       1.385210555833e+03 
       2.427309262829e-02       1.380895662852e+03 
       2.440975595314e-02       1.376553355271e+03 
       2.454654325311e-02       1.372181993744e+03 
       2.468345715306e-02       1.367784525420e+03 
       2.482050034159e-02       1.363357287778e+03 
       2.495767557279e-02       1.358910482342e+03 
       2.509498566789e-02       1.354434230821e+03 
       2.523243351705e-02       1.349934444686e+03 
       2.537002208116e-02       1.345408900350e+03 
       2.550775439377e-02       1.340867693468e+03 
       2.564563356300e-02       1.336297675609e+03 
       2.578366277357e-02       1.331709191437e+03 
       2.592184528888e-02       1.327100472261e+03 
       2.606018445314e-02       1.322473217154e+03 
       2.619868369362e-02       1.317827725473e+03 
       2.633734652290e-02       1.313161891741e+03 
       2.647617654132e-02       1.308478762077e+03 
       2.661517743936e-02       1.303781392498e+03 
       2.675435300023e-02       1.299065624787e+03 
       2.689370710247e-02       1.294338504283e+03 
       2.703324372269e-02       1.289592670479e+03 
       2.717296693837e-02       1.284835357941e+03 
       2.731288093082e-02       1.280061427745e+03 
       2.745298998813e-02       1.275279986139e+03 
       2.759329850835e-02       1.270485243833e+03 
       2.773381100272e-02       1.265675821524e+03 
       2.787453209902e-02       1.260855635332e+03 
       2.801546654506e-02       1.256028020153e+03 
       2.815661921230e-02       1.251188312658e+03 
       2.829799509957e-02       1.246342408009e+03 
       2.843959933697e-02       1.241487520869e+03 
       2.858143718990e-02       1.236622412164e+03 
       2.872351406323e-02       1.231753105987e+03 
       2.886583550567e-02       1.226872948918e+03 
       2.900840721426e-02       1.221990017433e+03 
       2.915123503905e-02       1.217101081814e+03 
       2.929432498798e-02       1.212204093475e+03 
       2.943768323195e-02       1.207303615026e+03 
       2.958131611005e-02       1.202397888100e+03 
       2.972523013505e-02       1.197492330094e+03 
       2.986943199909e-02       1.192580712278e+03 
       3.001392857962e-02       1.187664013787e+03 
       3.015872694553e-02       1.182745119823e+03 
       3.030383436359e-02       1.177825989827e+03 
       3.044925830513e-02       1.172901646502e+03 
       3.059500645302e-02       1.167979715604e+03 
       3.074108670894e-02       1.163053484668e+03 
       3.088750720093e-02       1.158131000405e+03 
       3.103427629130e-02       1.153207711693e+03 
       3.118140258488e-02       1.148283246602e+03 
       3.132889493761e-02       1.143359460069e+03 
       3.147676246556e-02       1.138438845354e+03 
       3.162501455426e-02       1.133512926235e+03 
       3.177366086858e-02       1.128594268825e+03 
       3.192271136292e-02       1.123673896436e+03 
       3.207217629197e-02       1.118763066777e+03 
       3.222206622192e-02       1.113843475798e+03 
       3.237239204222e-02       1.108934687395e+03 
       3.252316497785e-02       1.104027080279e+03 
       3.267439660224e-02       1.099123936195e+03 
       3.282609885074e-02       1.094226296537e+03 
       3.297828403480e-02       1.089328607934e+03 
       3.313096485683e-02       1.084438216208e+03 
       3.328415442576e-02       1.079551099871e+03 
       3.343786627340e-02       1.074666515624e+03 
       3.359211437169e-02       1.069787911656e+03 
       3.374691315069e-02       1.064915595375e+03 
       3.390227751763e-02       1.060046105255e+03 
       3.405822287688e-02       1.055187574438e+03 
       3.421476515097e-02       1.050330215532e+03 
       3.437192080278e-02       1.045477760105e+03 
       3.452970685885e-02       1.040634514719e+03 
       3.468814093398e-02       1.035797945339e+03 
       3.484724125724e-02       1.030965666106e+03 
       3.500702669930e-02       1.026139435011e+03 
       3.516751680141e-02       1.021322039419e+03 
       3.532873180595e-02       1.016512752507e+03 
       3.549069268876e-02       1.011705978754e+03 
       3.565342119332e-02       1.006908866083e+03 
       3.581693986699e-02       1.002117028446e+03 
       3.598127209929e-02       9.973339603142e+02 
       3.614644216263e-02       9.925544224136e+02 
       3.631247525534e-02       9.877839813410e+02 
       3.647939754751e-02       9.830255997032e+02 
       3.664723622955e-02       9.782697943231e+02 
       3.681601956386e-02       9.735222754096e+02 
       3.698577693982e-02       9.687830761447e+02 
       3.715653893227e-02       9.640499045300e+02 
       3.732833736383e-02       9.593209562280e+02 
       3.750120537139e-02       9.546070287702e+02 
       3.767517747695e-02       9.498961761916e+02 
       3.785028966343e-02       9.451917016088e+02 
       3.802657945550e-02       9.404962068207e+02 
       3.820408600622e-02       9.358059377806e+02 
       3.838285018971e-02       9.311251660332e+02 
       3.856291470048e-02       9.264457373164e+02 
       3.874432415999e-02       9.217805845276e+02 
       3.892712523101e-02       9.171173126303e+02 
       3.911136674063e-02       9.124621871570e+02 
       3.929709981249e-02       9.078155969940e+02 
       3.948437800922e-02       9.031745420772e+02 
       3.967325748602e-02       8.985384928391e+02 
       3.986379715640e-02       8.939063432659e+02 
       4.005605887126e-02       8.892833143797e+02 
       4.025010761258e-02       8.846611434611e+02 
       4.044601170322e-02       8.800488214653e+02 
       4.064384303440e-02       8.754380412505e+02 
       4.084367731267e-02       8.708355177576e+02 
       4.104559432841e-02       8.662341913556e+02 
       4.124967824809e-02       8.616398292722e+02 
       4.145601793289e-02       8.570503554424e+02 
       4.166470728644e-02       8.524580890288e+02 
       4.187584563508e-02       8.478699966296e+02 
       4.208953814411e-02       8.432869633006e+02 
       4.230589627431e-02       8.387067223600e+02 
       4.252503828332e-02       8.341267436693e+02 
       4.274708977731e-02       8.295495671092e+02 
       4.297218431892e-02       8.249681034998e+02 
       4.320046409854e-02       8.203909936017e+02 
       4.343208067680e-02       8.158090549913e+02 
       4.366719580737e-02       8.112314440927e+02 
       4.390598235074e-02       8.066441763216e+02 
       4.414862529088e-02       8.020599952493e+02 
       4.439532286905e-02       7.974698004332e+02 
       4.464628785077e-02       7.928747987528e+02 
       4.490174894506e-02       7.882753490878e+02 
       4.516195239794e-02       7.836671799726e+02 
       4.542716378606e-02       7.790545411902e+02 
       4.569767004075e-02       7.744326339030e+02 
       4.597378173816e-02       7.697996672696e+02 
       4.625583569784e-02       7.651550078681e+02 
       4.654419793966e-02       7.604991021857e+02 
       4.683926705865e-02       7.558276644114e+02 
       4.714147808905e-02       7.511402895359e+02 
       4.745130694262e-02       7.464343459557e+02 
       4.776927552420e-02       7.417104946554e+02 
       4.809595764838e-02       7.369615160413e+02 
       4.843198590815e-02       7.321905384233e+02 
       4.877805967897e-02       7.273925544441e+02 
       4.913495448313e-02       7.225626762336e+02 
       4.950353299061e-02       7.177003063633e+02 
       4.988475799767e-02       7.127997828167e+02 
       5.027970780617e-02       7.078587714815e+02 
       5.068959453058e-02       7.028730924959e+02 
       5.111578599124e-02       6.978361010427e+02 
       5.155983202090e-02       6.927411768950e+02 
       5.202349622514e-02       6.875851401309e+02 
       5.250879451066e-02       6.823569365077e+02 
       5.301804204161e-02       6.770468247356e+02 
       5.355391072100e-02       6.716468705356e+02 
       5.411949983847e-02       6.661417093651e+02 
       5.471842318629e-02       6.605201743266e+02 
       5.535491671702e-02       6.547581159739e+02 
       5.603397164363e-02       6.488364383900e+02 
       5.676149861932e-02       6.427255816343e+02 
       5.754452892612e-02       6.363880027197e+02 
       5.839145769989e-02       6.297780296413e+02 
       5.931233061232e-02       6.228353180972e+02 
       6.031916622879e-02       6.154805493039e+02 
       6.142628627516e-02       6.076086155353e+02 
       6.265058679972e-02       5.990825703877e+02 
       6.401161322377e-02       5.897090854567e+02 
