# dimensionless total [l(l+1)/2pi] C_l's
# for l=2 to 3000, i.e. number of multipoles equal to 2999
#
# -> if you prefer output in CAMB/HealPix/LensPix units/order, set 'format' to 'camb' in input file
# -> if you don't want to see such a header, set 'headers' to 'no' in input file
# -> for CMB lensing (phi), these are C_l^phi-phi for the lensing potential.
#    Remember the conversion factors:
#    C_l^dd (deflection) = l(l+1) C_l^phi-phi
#    C_l^gg (shear/convergence) = 1/4 (l(l+1))^2 C_l^phi-phi
#
# 1:l     2:TT                     3:EE                     4:TE                     5:BB                     6:phiphi                 7:TPhi                   8:Ephi               
    2       1.377998126374e-10       4.988283551427e-15       3.766009815288e-13       0.000000000000e+00       7.952606193624e-09       4.550235713998e-10      -2.005078736140e-12 
    3       1.303314160458e-10       7.182687931805e-15       4.450975565202e-13       0.000000000000e+00       4.928430784703e-09       3.221594242729e-10      -1.624251948101e-12 
    4       1.231421924152e-10       7.028512123357e-15       4.341133775923e-13       0.000000000000e+00       3.422950084455e-09       2.433322867748e-10      -1.163676744701e-12 
    5       1.176753611828e-10       5.341289760738e-15       3.840725670348e-13       0.000000000000e+00       2.549014820274e-09       1.917279284473e-10      -7.425966019924e-13 
    6       1.138561102888e-10       3.346940253083e-15       3.198518711649e-13       0.000000000000e+00       1.985008109567e-09       1.556199608939e-10      -4.000168526573e-13 
    7       1.113754485233e-10       1.860808170219e-15       2.570014858801e-13       0.000000000000e+00       1.596132412658e-09       1.291320061333e-10      -1.491297619209e-13 
    8       1.098505514466e-10       1.072457335711e-15       2.037536852963e-13       0.000000000000e+00       1.315533532935e-09       1.090268214234e-10       1.231729968216e-14 
    9       1.091028419703e-10       7.726862211391e-16       1.636112608553e-13       0.000000000000e+00       1.105533281386e-09       9.340422099583e-11       9.627453456345e-14 
   10       1.089523785918e-10       6.725099945283e-16       1.369895601141e-13       0.000000000000e+00       9.433383827768e-10       8.102717123698e-11       1.204685287185e-13 
   11       1.092024496898e-10       5.964076903453e-16       1.224851926735e-13       0.000000000000e+00       7.957310395633e-10       7.135861070009e-11       1.047372529839e-13 
   12       1.098258581606e-10       5.068423307142e-16       1.175726637842e-13       0.000000000000e+00       6.940253266096e-10       6.307126367405e-11       6.845284650717e-14 
   13       1.106998307854e-10       4.338647243934e-16       1.192812355615e-13       0.000000000000e+00       6.106340958987e-10       5.614045327419e-11       2.670596622591e-14 
   14       1.117670384139e-10       4.033596025987e-16       1.249650983425e-13       0.000000000000e+00       5.413260215459e-10       5.028776615919e-11      -9.520619633075e-15 
   15       1.130264995599e-10       4.114390435797e-16       1.325422396278e-13       0.000000000000e+00       4.830585944138e-10       4.535585568462e-11      -3.406132867195e-14 
   16       1.144167891316e-10       4.382232891133e-16       1.405673793607e-13       0.000000000000e+00       4.335776408518e-10       4.113030471900e-11      -4.528797290168e-14 
   17       1.159484732791e-10       4.701798286025e-16       1.482912267769e-13       0.000000000000e+00       3.911809797082e-10       3.740265720477e-11      -4.499267146196e-14 
   18       1.175755033783e-10       5.092992940259e-16       1.554905457939e-13       0.000000000000e+00       3.544252998937e-10       3.413918259779e-11      -3.681361829855e-14 
   19       1.192986625675e-10       5.646136976939e-16       1.623375808167e-13       0.000000000000e+00       3.227150111824e-10       3.129740812278e-11      -2.454434349057e-14 
   20       1.210882095926e-10       6.459541695995e-16       1.691545181489e-13       0.000000000000e+00       2.948193832218e-10       2.874906558412e-11      -1.266603419033e-14 
   21       1.229516266440e-10       7.539647992135e-16       1.762796158259e-13       0.000000000000e+00       2.702923995154e-10       2.649380660429e-11      -3.626211108343e-15 
   22       1.248782428990e-10       8.852478202914e-16       1.840196986627e-13       0.000000000000e+00       2.485390700322e-10       2.453154320221e-11       9.631476714763e-16 
   23       1.268708878061e-10       1.037448703167e-15       1.923382308396e-13       0.000000000000e+00       2.292543943354e-10       2.281382859839e-11       1.213519490352e-15 
   24       1.289150807143e-10       1.208410639179e-15       2.010150858251e-13       0.000000000000e+00       2.119868486359e-10       2.125384537269e-11      -1.855627901465e-15 
   25       1.310067522790e-10       1.398919431679e-15       2.097414967858e-13       0.000000000000e+00       1.965293713410e-10       1.982127151514e-11      -6.848561219188e-15 
   26       1.331325269801e-10       1.610223248183e-15       2.181253765785e-13       0.000000000000e+00       1.825984445878e-10       1.849537767848e-11      -1.203856668955e-14 
   27       1.353018805754e-10       1.841229756419e-15       2.258122477203e-13       0.000000000000e+00       1.700240581627e-10       1.729144197681e-11      -1.611149328460e-14 
   28       1.375207441488e-10       2.090351426911e-15       2.324581716340e-13       0.000000000000e+00       1.585864509983e-10       1.622404968729e-11      -1.797852216319e-14 
   29       1.397932866325e-10       2.358844777884e-15       2.379068869852e-13       0.000000000000e+00       1.482249248387e-10       1.527871502316e-11      -1.769301358992e-14 
   30       1.421095101152e-10       2.649129853901e-15       2.420632075968e-13       0.000000000000e+00       1.388256969160e-10       1.441743059964e-11      -1.580397751104e-14 
   31       1.444494346498e-10       2.963796986163e-15       2.448701696777e-13       0.000000000000e+00       1.301940778736e-10       1.359574006263e-11      -1.302105050049e-14 
   32       1.468186549850e-10       3.304525350964e-15       2.464123916996e-13       0.000000000000e+00       1.222841143872e-10       1.281706529444e-11      -9.957685491690e-15 
   33       1.492236068245e-10       3.672776361065e-15       2.468578275780e-13       0.000000000000e+00       1.150388171326e-10       1.209755194595e-11      -7.314932187878e-15 
   34       1.516631707833e-10       4.069909780354e-15       2.463822360459e-13       0.000000000000e+00       1.083554796592e-10       1.144831269665e-11      -5.772545981008e-15 
   35       1.541356833718e-10       4.496608301490e-15       2.449840532269e-13       0.000000000000e+00       1.021988506938e-10       1.086361300412e-11      -5.339404666342e-15 
   36       1.566325833654e-10       4.953235144795e-15       2.426055727556e-13       0.000000000000e+00       9.651838156917e-11       1.032759456070e-11      -5.772243985132e-15 
   37       1.591422100066e-10       5.440090864767e-15       2.391723280866e-13       0.000000000000e+00       9.123881410925e-11       9.822249974176e-12      -6.764118332484e-15 
   38       1.616726091963e-10       5.957821917785e-15       2.345638184444e-13       0.000000000000e+00       8.634581262383e-11       9.346327395178e-12      -8.027224443095e-15 
   39       1.642351944633e-10       6.507134971249e-15       2.286308924703e-13       0.000000000000e+00       8.182325802212e-11       8.902098660404e-12      -9.228325569917e-15 
   40       1.668380880554e-10       7.088682894123e-15       2.212015940077e-13       0.000000000000e+00       7.762722401660e-11       8.490074383770e-12      -9.960625704940e-15 
   41       1.694851936876e-10       7.703076277381e-15       2.121179862919e-13       0.000000000000e+00       7.370112854892e-11       8.109102272749e-12      -9.867333699700e-15 
   42       1.721740950194e-10       8.350931198402e-15       2.013647509865e-13       0.000000000000e+00       7.003293887666e-11       7.757121502127e-12      -9.071794642312e-15 
   43       1.748967425976e-10       9.032830919190e-15       1.889798554028e-13       0.000000000000e+00       6.661251454129e-11       7.430359190486e-12      -7.879635722989e-15 
   44       1.776394287047e-10       9.749309563424e-15       1.750208732708e-13       0.000000000000e+00       6.341445226456e-11       7.122924719070e-12      -6.666818774083e-15 
   45       1.803881382527e-10       1.050085234915e-14       1.595486279223e-13       0.000000000000e+00       6.040705539415e-11       6.828592518555e-12      -5.794352997498e-15 
   46       1.831476116107e-10       1.128790246147e-14       1.425697049835e-13       0.000000000000e+00       5.758529667043e-11       6.547154201086e-12      -5.312111307102e-15 
   47       1.859271849580e-10       1.211085183725e-14       1.240786196245e-13       0.000000000000e+00       5.494564787253e-11       6.279699682257e-12      -5.173624909945e-15 
   48       1.887353369824e-10       1.297003616594e-14       1.040738681410e-13       0.000000000000e+00       5.247614394394e-11       6.026799593689e-12      -5.316969928498e-15 
   49       1.915795561258e-10       1.386573246679e-14       8.255801996014e-14       0.000000000000e+00       5.015575707783e-11       5.788460706527e-12      -5.663821381303e-15 
   50       1.944651747158e-10       1.479817470456e-14       5.952761941282e-14       0.000000000000e+00       4.796067481065e-11       5.564247690390e-12      -6.129593339356e-15 
   51       1.973918062750e-10       1.576761125442e-14       3.493944616354e-14       0.000000000000e+00       4.588659541461e-11       5.353790770568e-12      -6.659299010221e-15 
   52       2.003557116845e-10       1.677425884735e-14       8.735255593390e-15       0.000000000000e+00       4.393140240564e-11       5.156338815418e-12      -7.199789215936e-15 
   53       2.033505707061e-10       1.781828435846e-14      -1.914920974249e-14       0.000000000000e+00       4.208849559102e-11       4.970569167428e-12      -7.689102709243e-15 
   54       2.063673006098e-10       1.889980323308e-14      -4.878460764945e-14       0.000000000000e+00       4.034649004927e-11       4.794550894264e-12      -8.056041856624e-15 
   55       2.093971538259e-10       2.001887135156e-14      -8.023474616885e-14       0.000000000000e+00       3.869265328621e-11       4.626280646354e-12      -8.240855360538e-15 
   56       2.124423275403e-10       2.117546186276e-14      -1.135120908168e-13       0.000000000000e+00       3.712490621291e-11       4.465530303989e-12      -8.264275289666e-15 
   57       2.155076720625e-10       2.236947983869e-14      -1.486118831856e-13       0.000000000000e+00       3.564227620791e-11       4.312393956757e-12      -8.174887104576e-15 
   58       2.185975902708e-10       2.360076654194e-14      -1.855246695369e-13       0.000000000000e+00       3.424126814930e-11       4.166741386049e-12      -8.029914593521e-15 
   59       2.217159839938e-10       2.486909759611e-14      -2.242361569988e-13       0.000000000000e+00       3.291570903789e-11       4.028203625459e-12      -7.895617907642e-15 
   60       2.248662003927e-10       2.617418115632e-14      -2.647270697632e-13       0.000000000000e+00       3.165659262025e-11       3.896158521174e-12      -7.847691596181e-15 
   61       2.280508385562e-10       2.751567994773e-14      -3.069766512903e-13       0.000000000000e+00       3.045455958437e-11       3.769927884906e-12      -7.951882924094e-15 
   62       2.312712398569e-10       2.889328730068e-14      -3.509744148576e-13       0.000000000000e+00       2.930834019810e-11       3.649453331559e-12      -8.199862631817e-15 
   63       2.345277875333e-10       3.030666501362e-14      -3.967107873706e-13       0.000000000000e+00       2.821793961673e-11       3.534747207624e-12      -8.559600490670e-15 
   64       2.378199794781e-10       3.175541994005e-14      -4.441736685354e-13       0.000000000000e+00       2.718209920154e-11       3.425686811955e-12      -8.993649809291e-15 
   65       2.411463701852e-10       3.323910291639e-14      -4.933484027415e-13       0.000000000000e+00       2.619822476756e-11       3.322006669832e-12      -9.458917873369e-15 
   66       2.445045126964e-10       3.475720768968e-14      -5.442177509436e-13       0.000000000000e+00       2.526231483144e-11       3.223290807031e-12      -9.906436385369e-15 
   67       2.478909005476e-10       3.630916984544e-14      -5.967618625440e-13       0.000000000000e+00       2.436888885927e-11       3.128965023891e-12      -1.028113190426e-14 
   68       2.513021845288e-10       3.789433230655e-14      -6.509602749120e-13       0.000000000000e+00       2.351243890122e-11       3.038448545865e-12      -1.053433901886e-14 
   69       2.547392390276e-10       3.951183610867e-14      -7.067984452697e-13       0.000000000000e+00       2.269228644372e-11       2.951661927385e-12      -1.066479727864e-14 
   70       2.582038191296e-10       4.116070546519e-14      -7.642624979073e-13       0.000000000000e+00       2.190858530641e-11       2.868608656352e-12      -1.068558709606e-14 
   71       2.616973337151e-10       4.283987734532e-14      -8.233373369657e-13       0.000000000000e+00       2.116085312738e-11       2.789221299116e-12      -1.061221663138e-14 
   72       2.652208200091e-10       4.454819954691e-14      -8.840066701764e-13       0.000000000000e+00       2.044793857225e-11       2.713357850675e-12      -1.046271813343e-14 
   73       2.687749181323e-10       4.628442876929e-14      -9.462530326018e-13       0.000000000000e+00       1.976798854332e-11       2.640798084864e-12      -1.025774428053e-14 
   74       2.723598456510e-10       4.804722868611e-14      -1.010057810375e-12       0.000000000000e+00       1.911841538873e-11       2.571239904548e-12      -1.002066452126e-14 
   75       2.759753721283e-10       4.983516801814e-14      -1.075401264438e-12       0.000000000000e+00       1.849586411155e-11       2.504295691812e-12      -9.777661415337e-15 
   76       2.796211729705e-10       5.164682181766e-14      -1.142259931712e-12       0.000000000000e+00       1.789703869774e-11       2.439589508036e-12      -9.552393868499e-15 
   77       2.832980217200e-10       5.348110090452e-14      -1.210598228987e-12       0.000000000000e+00       1.732142754902e-11       2.377077225282e-12      -9.348650343600e-15 
   78       2.870067699565e-10       5.533697928216e-14      -1.280375353979e-12       0.000000000000e+00       1.676901778047e-11       2.316778412663e-12      -9.164692714170e-15 
   79       2.907479699026e-10       5.721339644173e-14      -1.351547742520e-12       0.000000000000e+00       1.623946526369e-11       2.258679109159e-12      -8.998393918562e-15 
   80       2.945218567526e-10       5.910925755134e-14      -1.424069038523e-12       0.000000000000e+00       1.573207945288e-11       2.202730241811e-12      -8.847222890553e-15 
   81       2.983283310006e-10       6.102343364535e-14      -1.497890063945e-12       0.000000000000e+00       1.524580821086e-11       2.148846043924e-12      -8.708229489956e-15 
   82       3.021669407683e-10       6.295476181363e-14      -1.572958788744e-12       0.000000000000e+00       1.477922263514e-11       2.096902473268e-12      -8.578029433218e-15 
   83       3.060368641342e-10       6.490204539080e-14      -1.649220300848e-12       0.000000000000e+00       1.433050188398e-11       2.046735630279e-12      -8.452789224026e-15 
   84       3.099372585905e-10       6.686401382913e-14      -1.726619444055e-12       0.000000000000e+00       1.389787193182e-11       1.998184287472e-12      -8.329069258308e-15 
   85       3.138684146901e-10       6.883919425907e-14      -1.805109300013e-12       0.000000000000e+00       1.348103864619e-11       1.951229043429e-12      -8.206546739791e-15 
   86       3.178307621389e-10       7.082601888417e-14      -1.884644063841e-12       0.000000000000e+00       1.307996556855e-11       1.905873444699e-12      -8.085718635966e-15 
   87       3.218245083390e-10       7.282286292324e-14      -1.965176515787e-12       0.000000000000e+00       1.269443367422e-11       1.862101097621e-12      -7.967083001688e-15 
   88       3.258496268872e-10       7.482804412205e-14      -2.046658036027e-12       0.000000000000e+00       1.232403382750e-11       1.819874827886e-12      -7.851138332879e-15 
   89       3.299058460734e-10       7.683982226498e-14      -2.129038619472e-12       0.000000000000e+00       1.196815923681e-11       1.779135840102e-12      -7.738382920239e-15 
   90       3.339926373793e-10       7.885639868671e-14      -2.212266890563e-12       0.000000000000e+00       1.162599790980e-11       1.739802877361e-12      -7.629314202941e-15 
   91       3.381092039770e-10       8.087591578393e-14      -2.296290118079e-12       0.000000000000e+00       1.129652510849e-11       1.701771380804e-12      -7.524428122340e-15 
   92       3.422544692271e-10       8.289645652699e-14      -2.381054229931e-12       0.000000000000e+00       1.097849580434e-11       1.664912649187e-12      -7.424218475675e-15 
   93       3.464274045419e-10       8.491610752085e-14      -2.466503785623e-12       0.000000000000e+00       1.067073778166e-11       1.629105702042e-12      -7.329083095697e-15 
   94       3.506280943615e-10       8.693316009783e-14      -2.552581856720e-12       0.000000000000e+00       1.037309776184e-11       1.594340176455e-12      -7.239027652193e-15 
   95       3.548568108299e-10       8.894593870709e-14      -2.639230155684e-12       0.000000000000e+00       1.008562428864e-11       1.560627424102e-12      -7.153915899966e-15 
   96       3.591136819516e-10       9.095274043909e-14      -2.726389090647e-12       0.000000000000e+00       9.808276386782e-12       1.527968800296e-12      -7.073556984094e-15 
   97       3.633986847486e-10       9.295183540957e-14      -2.813997779631e-12       0.000000000000e+00       9.540920144033e-12       1.496355272466e-12      -6.997703514648e-15 
   98       3.677116384171e-10       9.494146714359e-14      -2.901994064769e-12       0.000000000000e+00       9.283325293252e-12       1.465767028643e-12      -6.926049641409e-15 
   99       3.720521974843e-10       9.691985295951e-14      -2.990314526527e-12       0.000000000000e+00       9.035161794469e-12       1.436173085940e-12      -6.858229128589e-15 
  100       3.764198449657e-10       9.888518435306e-14      -3.078894497920e-12       0.000000000000e+00       8.795996416958e-12       1.407530899034e-12      -6.793813429550e-15 
  101       3.808138855221e-10       1.008356273813e-13      -3.167668078733e-12       0.000000000000e+00       8.565289321298e-12       1.379785968652e-12      -6.732309761518e-15 
  102       3.852334386159e-10       1.027693230465e-13      -3.256568149745e-12       0.000000000000e+00       8.342390641449e-12       1.352871450049e-12      -6.673159180306e-15 
  103       3.896774316687e-10       1.046843876806e-13      -3.345526386943e-12       0.000000000000e+00       8.126537066818e-12       1.326707761494e-12      -6.615734655032e-15 
  104       3.941448262927e-10       1.065789512508e-13      -3.434473978825e-12       0.000000000000e+00       7.917023651640e-12       1.301221095736e-12      -6.559450321519e-15 
  105       3.986353465289e-10       1.084512773446e-13      -3.523343858006e-12       0.000000000000e+00       7.713753037032e-12       1.276402645597e-12      -6.504110197478e-15 
  106       4.031488366842e-10       1.102996601845e-13      -3.612068798986e-12       0.000000000000e+00       7.516754394219e-12       1.252256686237e-12      -6.449603203683e-15 
  107       4.076850328105e-10       1.121223889444e-13      -3.700580763664e-12       0.000000000000e+00       7.326013348097e-12       1.228782205031e-12      -6.395795496766e-15 
