# dimensionless total lensed [l(l+1)/2pi] C_l's
# for l=2 to 2500, i.e. number of multipoles equal to 2499
#
# -> if you prefer output in CAMB/HealPix/LensPix units/order, set 'format' to 'camb' in input file
# -> if you don't want to see such a header, set 'headers' to 'no' in input file
# -> for CMB lensing (phi), these are C_l^phi-phi for the lensing potential.
#    Remember the conversion factors:
#    C_l^dd (deflection) = l(l+1) C_l^phi-phi
#    C_l^gg (shear/convergence) = 1/4 (l(l+1))^2 C_l^phi-phi
#
# 1:l     2:TT                     3:EE                     4:TE                     5:BB                     6:phiphi                 7:TPhi                   8:Ephi               
    2       1.378002373835e-10       4.988471183408e-15       3.766009779207e-13       1.876319102596e-19       7.952606193624e-09       4.550235713998e-10      -2.005078736140e-12 
    3       1.303322634549e-10       7.183063288346e-15       4.450975404436e-13       3.753558438887e-19       4.928430784703e-09       3.221594242729e-10      -1.624251948101e-12 
    4       1.231436001915e-10       7.029137922544e-15       4.341133314108e-13       6.257957558691e-19       3.422950084455e-09       2.433322867748e-10      -1.163676744701e-12 
    5       1.176774644096e-10       5.342228841852e-15       3.840724618645e-13       9.390693441057e-19       2.549014820274e-09       1.917279284473e-10      -7.425966019924e-13 
    6       1.138590409038e-10       3.348255604794e-15       3.198516644495e-13       1.315319537868e-18       1.985008109567e-09       1.556199608939e-10      -4.000168526573e-13 
    7       1.113793348731e-10       1.862562957157e-15       2.570011191991e-13       1.754711875031e-18       1.596132412658e-09       1.291320061333e-10      -1.491297619209e-13 
    8       1.098555179317e-10       1.074714922924e-15       2.037530824374e-13       2.257431520271e-18       1.315533532935e-09       1.090268214234e-10       1.231729968216e-14 
    9       1.091090087850e-10       7.755101958667e-16       1.636103261712e-13       2.823680005720e-18       1.105533281386e-09       9.340422099583e-11       9.627453456345e-14 
   10       1.089598615635e-10       6.759641846615e-16       1.369881771740e-13       3.453671782223e-18       9.433383827768e-10       8.102717123698e-11       1.204685287185e-13 
   11       1.092113602162e-10       6.005561789211e-16       1.224832232117e-13       4.147630673292e-18       7.957310395633e-10       7.135861070009e-11       1.047372529839e-13 
   12       1.098363032425e-10       5.117494657807e-16       1.175699469389e-13       4.905786324882e-18       6.940253266096e-10       6.307126367405e-11       6.845284650717e-14 
   13       1.107119131462e-10       4.395951236118e-16       1.192775873894e-13       5.728370742327e-18       6.106340958987e-10       5.614045327419e-11       2.670596622591e-14 
   14       1.117808566983e-10       4.099781520079e-16       1.249603115879e-13       6.615615001110e-18       5.413260215459e-10       5.028776615919e-11      -9.520619633075e-15 
   15       1.130421485981e-10       4.190108900573e-16       1.325360837191e-13       7.567746210963e-18       4.830585944138e-10       4.535585568462e-11      -3.406132867195e-14 
   16       1.144343602552e-10       4.468138262016e-16       1.405596006064e-13       8.584984803129e-18       4.335776408518e-10       4.113030471900e-11      -4.528797290168e-14 
   17       1.159680546741e-10       4.798546755464e-16       1.482815487281e-13       9.667542199025e-18       3.911809797082e-10       3.740265720477e-11      -4.499267146196e-14 
   18       1.175971804648e-10       5.201242682690e-16       1.554786697561e-13       1.081561874634e-17       3.544252998937e-10       3.413918259779e-11      -3.681361829855e-14 
   19       1.193225183470e-10       5.766547799061e-16       1.623231863974e-13       1.202940306529e-17       3.227150111824e-10       3.129740812278e-11      -2.454434349057e-14 
   20       1.211143250637e-10       6.592774646952e-16       1.691372640419e-13       1.330906929352e-17       2.948193832218e-10       2.874906558412e-11      -1.266603419033e-14 
   21       1.229800810815e-10       7.686364903401e-16       1.762591404489e-13       1.465477912139e-17       2.702923995154e-10       2.649380660429e-11      -3.626211108343e-15 
   22       1.249091142114e-10       9.013341189994e-16       1.839956210579e-13       1.606667880265e-17       2.485390700322e-10       2.453154320221e-11       9.631476714763e-16 
   23       1.269042527168e-10       1.055015797335e-15       1.923101513978e-13       1.754490282870e-17       2.292543943354e-10       2.281382859839e-11       1.213519490352e-15 
   24       1.289510150220e-10       1.227524636837e-15       2.009825872801e-13       1.908957088597e-17       2.119868486359e-10       2.125384537269e-11      -1.855627901465e-15 
   25       1.310453308963e-10       1.419646309134e-15       2.097041450372e-13       2.070079355741e-17       1.965293713410e-10       1.982127151514e-11      -6.848561219188e-15 
   26       1.331738240694e-10       1.632628791959e-15       2.180827217941e-13       2.237866854706e-17       1.825984445878e-10       1.849537767848e-11      -1.203856668955e-14 
   27       1.353459694807e-10       1.865379513344e-15       2.257638253584e-13       2.412328645033e-17       1.700240581627e-10       1.729144197681e-11      -1.611149328460e-14 
   28       1.375676973898e-10       2.116310650920e-15       2.324035037322e-13       2.593472832907e-17       1.585864509983e-10       1.622404968729e-11      -1.797852216319e-14 
   29       1.398431756191e-10       2.386678403098e-15       2.378454835337e-13       2.781307605882e-17       1.482249248387e-10       1.527871502316e-11      -1.769301358992e-14 
   30       1.421624050470e-10       2.678902445046e-15       2.419945680940e-13       2.975840397991e-17       1.388256969160e-10       1.441743059964e-11      -1.580397751104e-14 
   31       1.445054044064e-10       2.995572692744e-15       2.447937849513e-13       3.177077944165e-17       1.301940778736e-10       1.359574006263e-11      -1.302105050049e-14 
   32       1.468777667331e-10       3.338367910666e-15       2.463277462722e-13       3.385027737904e-17       1.222841143872e-10       1.281706529444e-11      -9.957685491690e-15 
   33       1.492859257637e-10       3.708749070171e-15       2.467644019013e-13       3.599697114306e-17       1.150388171326e-10       1.209755194595e-11      -7.314932187878e-15 
   34       1.517287599260e-10       4.108075464058e-15       2.462795090419e-13       3.821093162756e-17       1.083554796592e-10       1.144831269665e-11      -5.772545981008e-15 
   35       1.542046032715e-10       4.537029331329e-15       2.448715059346e-13       4.049223706370e-17       1.021988506938e-10       1.086361300412e-11      -5.339404666342e-15 
   36       1.567048918354e-10       4.995973425550e-15       2.424826915123e-13       4.284096712226e-17       9.651838156917e-11       1.032759456070e-11      -5.772243985132e-15 
   37       1.592179619107e-10       5.485207817533e-15       2.390386080820e-13       4.525720158328e-17       9.123881410925e-11       9.822249974176e-12      -6.764118332484e-15 
   38       1.617518565246e-10       6.005378491093e-15       2.344187690249e-13       4.774102343959e-17       8.634581262383e-11       9.346327395178e-12      -8.027224443095e-15 
   39       1.643179861825e-10       6.557191634840e-15       2.284740415819e-13       5.029251748576e-17       8.182325802212e-11       8.902098660404e-12      -9.228325569917e-15 
   40       1.669244698584e-10       7.141299626600e-15       2.210324924248e-13       5.291177002353e-17       7.762722401660e-11       8.490074383770e-12      -9.960625704940e-15 
   41       1.695752079087e-10       7.758312546725e-15       2.119362124740e-13       5.559886704593e-17       7.370112854892e-11       8.109102272749e-12      -9.867333699700e-15 
   42       1.722677811545e-10       8.408845915720e-15       2.011699175929e-13       5.835388706985e-17       7.003293887666e-11       7.757121502127e-12      -9.071794642312e-15 
   43       1.749941373857e-10       9.093482412339e-15       1.887716150239e-13       6.117690667663e-17       6.661251454129e-11       7.430359190486e-12      -7.879635722989e-15 
   44       1.777405660375e-10       9.812755558619e-15       1.747989239998e-13       6.406800280736e-17       6.341445226456e-11       7.122924719070e-12      -6.666818774083e-15 
   45       1.804930492755e-10       1.056714991476e-14       1.593127188811e-13       6.702724740877e-17       6.040705539415e-11       6.828592518555e-12      -5.794352997498e-15 
   46       1.832563254819e-10       1.135710782374e-14       1.423196411514e-13       7.005468883821e-17       5.758529667043e-11       6.547154201086e-12      -5.312111307102e-15 
   47       1.860397291370e-10       1.218302028667e-14       1.238142675460e-13       7.315036534987e-17       5.494564787253e-11       6.279699682257e-12      -5.173624909945e-15 
   48       1.888517373437e-10       1.304522199695e-14       1.037951620993e-13       7.631431017371e-17       5.247614394394e-11       6.026799593689e-12      -5.316969928498e-15 
   49       1.916998370787e-10       1.394398891577e-14       8.226496836465e-14       7.954655145662e-17       5.015575707783e-11       5.788460706527e-12      -5.663821381303e-15 
   50       1.945893593888e-10       1.487955383841e-14       5.922030997823e-14       8.284710688116e-17       4.796067481065e-11       5.564247690390e-12      -6.129593339356e-15 
   51       1.975199169010e-10       1.585216369891e-14       3.461804658317e-14       8.621596593618e-17       4.588659541461e-11       5.353790770568e-12      -6.659299010221e-15 
   52       2.004877698500e-10       1.686203362927e-14       8.400017864677e-15       8.965310273203e-17       4.393140240564e-11       5.156338815418e-12      -7.199789215936e-15 
   53       2.034865975543e-10       1.790932878784e-14      -1.949794353458e-14       9.315848060046e-17       4.208849559102e-11       4.970569167428e-12      -7.689102709243e-15 
   54       2.065073170534e-10       1.899416278145e-14      -4.914639940226e-14       9.673205178533e-17       4.034649004927e-11       4.794550894264e-12      -8.056041856624e-15 
   55       2.095411805473e-10       2.011658953200e-14      -8.060905820796e-14       1.003737585604e-16       3.869265328621e-11       4.626280646354e-12      -8.240855360538e-15 
   56       2.125903842784e-10       2.127658012448e-14      -1.138982904974e-13       1.040835376165e-16       3.712490621291e-11       4.465530303989e-12      -8.264275289666e-15 
   57       2.156597774510e-10       2.247403744378e-14      -1.490092411074e-13       1.078613162225e-16       3.564227620791e-11       4.312393956757e-12      -8.174887104576e-15 
   58       2.187537618810e-10       2.370880043309e-14      -1.859323553661e-13       1.117070106456e-16       3.424126814930e-11       4.166741386049e-12      -8.029914593521e-15 
   59       2.218762383776e-10       2.498064226066e-14      -2.246532352424e-13       1.156205258974e-16       3.291570903789e-11       4.028203625459e-12      -7.895617907642e-15 
   60       2.250305531258e-10       2.628926848652e-14      -2.651524954937e-13       1.196017554802e-16       3.165659262025e-11       3.896158521174e-12      -7.847691596181e-15 
   61       2.282193039413e-10       2.763433923422e-14      -3.074092680730e-13       1.236505939174e-16       3.045455958437e-11       3.769927884906e-12      -7.951882924094e-15 
   62       2.314438295200e-10       2.901554566888e-14      -3.514129599692e-13       1.277669782044e-16       2.930834019810e-11       3.649453331559e-12      -8.199862631817e-15 
   63       2.347045098771e-10       3.043254751049e-14      -3.971538912841e-13       1.319508552537e-16       2.821793961673e-11       3.534747207624e-12      -8.559600490670e-15 
   64       2.380008394436e-10       3.188494949328e-14      -4.446198523224e-13       1.362021700811e-16       2.718209920154e-11       3.425686811955e-12      -8.993649809291e-15 
   65       2.413313690018e-10       3.337230029419e-14      -4.937960754969e-13       1.405208659577e-16       2.619822476756e-11       3.322006669832e-12      -9.458917873369e-15 
   66       2.446936476213e-10       3.489409146129e-14      -5.446652072335e-13       1.449068845618e-16       2.526231483144e-11       3.223290807031e-12      -9.906436385369e-15 
   67       2.480841645951e-10       3.644975634213e-14      -5.972072798767e-13       1.493601661306e-16       2.436888885927e-11       3.128965023891e-12      -1.028113190426e-14 
   68       2.514995662991e-10       3.803863576649e-14      -6.514017110679e-13       1.538806662674e-16       2.351243890122e-11       3.038448545865e-12      -1.053433901886e-14 
   69       2.549407228813e-10       3.965986941508e-14      -7.072338351244e-13       1.584684099777e-16       2.269228644372e-11       2.951661927385e-12      -1.066479727864e-14 
   70       2.584093850687e-10       4.131248041309e-14      -7.646896506999e-13       1.631234489054e-16       2.190858530641e-11       2.868608656352e-12      -1.068558709606e-14 
   71       2.619069571502e-10       4.299540474092e-14      -8.237539337397e-13       1.678458462139e-16       2.116085312738e-11       2.789221299116e-12      -1.061221663138e-14 
   72       2.654344715202e-10       4.470748931231e-14      -8.844102612401e-13       1.726356771644e-16       2.044793857225e-11       2.713357850675e-12      -1.046271813343e-14 
   73       2.689925632206e-10       4.644749005248e-14      -9.466410350062e-13       1.774930296931e-16       1.976798854332e-11       2.640798084864e-12      -1.025774428053e-14 
   74       2.725814444837e-10       4.821406997629e-14      -1.010427505412e-12       1.824180049897e-16       1.911841538873e-11       2.571239904548e-12      -1.002066452126e-14 
   75       2.762008792749e-10       5.000579726632e-14      -1.075749795156e-12       1.874107180751e-16       1.849586411155e-11       2.504295691812e-12      -9.777661415337e-15 
   76       2.798505376782e-10       5.182124650992e-14      -1.142584300392e-12       1.924712993413e-16       1.789703869774e-11       2.439589508036e-12      -9.552393868499e-15 
   77       2.835311899350e-10       5.365932797144e-14      -1.210895294444e-12       1.975998982185e-16       1.732142754902e-11       2.377077225282e-12      -9.348650343600e-15 
   78       2.872436849050e-10       5.551901515169e-14      -1.280641829039e-12       2.027966812298e-16       1.676901778047e-11       2.316778412663e-12      -9.164692714170e-15 
   79       2.909885721569e-10       5.739924714623e-14      -1.351780191575e-12       2.080618316763e-16       1.623946526369e-11       2.258679109159e-12      -8.998393918562e-15 
   80       2.947660842998e-10       5.929892883887e-14      -1.424263875098e-12       2.133955502347e-16       1.573207945288e-11       2.202730241811e-12      -8.847222890553e-15 
   81       2.985761193154e-10       6.121693109513e-14      -1.498043548284e-12       2.187980555550e-16       1.524580821086e-11       2.148846043924e-12      -8.708229489956e-15 
   82       3.024182228890e-10       6.315209095578e-14      -1.573067025418e-12       2.242695848578e-16       1.477922263514e-11       2.096902473268e-12      -8.578029433218e-15 
   83       3.062915707415e-10       6.510321183031e-14      -1.649279236371e-12       2.298103945324e-16       1.433050188398e-11       2.046735630279e-12      -8.452789224026e-15 
   84       3.101953180423e-10       6.706902318925e-14      -1.726624869440e-12       2.354207471931e-16       1.389787193182e-11       1.998184287472e-12      -8.329069258308e-15 
   85       3.141297529053e-10       6.904805153973e-14      -1.805056869003e-12       2.411008690749e-16       1.348103864619e-11       1.951229043429e-12      -8.206546739791e-15 
   86       3.180953026132e-10       7.103872831570e-14      -1.884529298102e-12       2.468509866381e-16       1.307996556855e-11       1.905873444699e-12      -8.085718635966e-15 
   87       3.220921722086e-10       7.303942799732e-14      -1.964994805522e-12       2.526713398452e-16       1.269443367422e-11       1.862101097621e-12      -7.967083001688e-15 
   88       3.261203329950e-10       7.504846762375e-14      -2.046404640692e-12       2.585621825318e-16       1.232403382750e-11       1.819874827886e-12      -7.851138332879e-15 
   89       3.301795110384e-10       7.706410630598e-14      -2.128708668585e-12       2.645237827758e-16       1.196815923681e-11       1.779135840102e-12      -7.738382920239e-15 
   90       3.342691756677e-10       7.908454473956e-14      -2.211855384623e-12       2.705564232680e-16       1.162599790980e-11       1.739802877361e-12      -7.629314202941e-15 
   91       3.383885279761e-10       8.110792471748e-14      -2.295791929575e-12       2.766604016820e-16       1.129652510849e-11       1.701771380804e-12      -7.524428122340e-15 
   92       3.425364893222e-10       8.313232864291e-14      -2.380464104460e-12       2.828360310440e-16       1.097849580434e-11       1.664912649187e-12      -7.424218475675e-15 
   93       3.467120286214e-10       8.515584295619e-14      -2.465816347731e-12       2.890836401496e-16       1.067073778166e-11       1.629105702042e-12      -7.329083095697e-15 
   94       3.509152255063e-10       8.717676038603e-14      -2.551791630546e-12       2.954035740818e-16       1.037309776184e-11       1.594340176455e-12      -7.239027652193e-15 
   95       3.551463465495e-10       8.919340735764e-14      -2.638331573221e-12       3.017961944552e-16       1.008562428864e-11       1.560627424102e-12      -7.153915899966e-15 
   96       3.594055139634e-10       9.120408317386e-14      -2.725376495738e-12       3.082618797421e-16       9.808276386782e-12       1.527968800296e-12      -7.073556984094e-15 
   97       3.636926987522e-10       9.320706040530e-14      -2.812865432127e-12       3.148010256437e-16       9.540920144033e-12       1.496355272466e-12      -6.997703514648e-15 
   98       3.680077138630e-10       9.520058528046e-14      -2.900736144850e-12       3.214140454600e-16       9.283325293252e-12       1.465767028643e-12      -6.926049641409e-15 
   99       3.723502073381e-10       9.718287807593e-14      -2.988925139183e-12       3.281013704611e-16       9.035161794469e-12       1.436173085940e-12      -6.858229128589e-15 
  100       3.767196554657e-10       9.915213350643e-14      -3.077367677605e-12       3.348634502575e-16       8.795996416958e-12       1.407530899034e-12      -6.793813429550e-15 
  101       3.811153559322e-10       1.011065211151e-13      -3.165997794173e-12       3.417007531712e-16       8.565289321298e-12       1.379785968652e-12      -6.732309761518e-15 
  102       3.855364209733e-10       1.030441856633e-13      -3.254748308914e-12       3.486137666056e-16       8.342390641449e-12       1.352871450049e-12      -6.673159180306e-15 
  103       3.899817705261e-10       1.049632475214e-13      -3.343550842204e-12       3.556029974171e-16       8.126537066818e-12       1.326707761494e-12      -6.615734655032e-15 
  104       3.944503591688e-10       1.068618411068e-13      -3.432336529772e-12       3.626689753143e-16       7.917023651640e-12       1.301221095736e-12      -6.559450321519e-15 
  105       3.989419066065e-10       1.087382352737e-13      -3.521038246722e-12       3.698122627819e-16       7.713753037032e-12       1.276402645597e-12      -6.504110197478e-15 
  106       4.034562535556e-10       1.105907299899e-13      -3.609588712160e-12       3.770334471952e-16       7.516754394219e-12       1.252256686237e-12      -6.449603203683e-15 
  107       4.079931325391e-10       1.124176205383e-13      -3.697919837216e-12       3.843331383090e-16       7.326013348097e-12       1.228782205031e-12      -6.395795496766e-15 
