# Matter power spectrum P(k) at redshift z=5.5
# for k=1.03995e-05 to 1243 h/Mpc,
# number of wavenumbers equal to 625
#    1:k (h/Mpc)              2:P (Mpc/h)^3        
       1.039953543896e-05       1.746020081871e+00 
       2.362715252707e-05       3.913843128671e+00 
       3.690288557276e-05       6.064958491155e+00 
       5.026440451877e-05       8.213888947061e+00 
       6.375002738089e-05       1.037051661508e+01 
       7.739908048046e-05       1.254317914507e+01 
       9.125227067342e-05       1.473959746020e+01 
       1.053520747789e-04       1.696728678800e+01 
       1.197431514480e-04       1.923378883552e+01 
       1.344727807492e-04       2.154683033986e+01 
       1.495913367397e-04       2.391444720153e+01 
       1.651527981975e-04       2.634509299565e+01 
       1.812153024208e-04       2.884774112306e+01 
       1.978417464781e-04       3.143198518745e+01 
       2.151004393591e-04       3.410814069732e+01 
       2.330658069688e-04       3.688734953845e+01 
       2.518191495799e-04       3.978168794433e+01 
       2.714494479115e-04       4.280427666961e+01 
       2.920542090557e-04       4.596939285651e+01 
       3.137403365828e-04       4.929257993863e+01 
       3.366249998083e-04       5.279075143881e+01 
       3.608364648896e-04       5.648228181737e+01 
       3.865148347006e-04       6.038707545031e+01 
       4.138126251223e-04       6.452660223542e+01 
       4.428950827964e-04       6.892388236348e+01 
       4.739401247143e-04       7.360340435425e+01 
       5.071377557701e-04       7.859095026094e+01 
       5.426888010081e-04       8.391330660356e+01 
       5.808027813663e-04       8.959783505091e+01 
       6.216947741287e-04       9.567188130587e+01 
       6.655811422290e-04       1.021620118515e+02 
       7.126740992655e-04       1.090930792605e+02 
       7.631752041348e-04       1.164871425798e+02 
       8.172680453872e-04       1.243622961577e+02 
       8.751105612573e-04       1.327314863174e+02 
       9.368276115359e-04       1.416014272577e+02 
       1.002504525669e-03       1.509717337459e+02 
       1.072182352673e-03       1.608343854121e+02 
       1.145855406415e-03       1.711736122083e+02 
       1.223471442598e-03       1.819662300706e+02 
       1.304934468295e-03       1.931824158030e+02 
       1.390109845146e-03       2.047868273117e+02 
       1.478831079880e-03       2.167399635050e+02 
       1.570907553874e-03       2.289996122859e+02 
       1.666132440652e-03       2.415222536218e+02 
       1.764290173008e-03       2.542643268632e+02 
       1.865163002780e-03       2.671832764029e+02 
       1.968536395812e-03       2.802383600179e+02 
       2.074203182650e-03       2.933912115872e+02 
       2.181966519942e-03       3.066061832302e+02 
       2.291641802565e-03       3.198501891914e+02 
       2.403057707652e-03       3.330936582297e+02 
       2.516056559817e-03       3.463098073985e+02 
       2.630494193709e-03       3.594745184142e+02 
       2.746239465532e-03       3.725662985553e+02 
       2.863173536797e-03       3.855661381090e+02 
       2.981189025715e-03       3.984572646935e+02 
       3.100189097064e-03       4.112250553340e+02 
       3.220086540844e-03       4.238567702286e+02 
       3.340802873876e-03       4.363414279983e+02 
       3.462267486105e-03       4.486695826865e+02 
       3.584416844309e-03       4.608332300315e+02 
       3.707193759434e-03       4.728255666395e+02 
       3.830546719295e-03       4.846409482082e+02 
       3.954429285456e-03       4.962746235812e+02 
       4.078799551231e-03       5.077228220667e+02 
       4.203619656709e-03       5.189823281903e+02 
       4.328855356143e-03       5.300508809334e+02 
       4.454475632939e-03       5.409265228089e+02 
       4.580452357514e-03       5.516080748023e+02 
       4.706759983548e-03       5.620946344653e+02 
       4.833375278454e-03       5.723858925755e+02 
       4.960277084235e-03       5.824819040925e+02 
       5.087446105271e-03       5.923828026924e+02 
       5.214864719920e-03       6.020894123173e+02 
       5.342516813153e-03       6.116024098663e+02 
       5.470387627763e-03       6.209228935398e+02 
       5.598463631961e-03       6.300523383362e+02 
       5.726732401438e-03       6.389921575084e+02 
       5.855182514195e-03       6.477434916972e+02 
       5.983803456649e-03       6.563085480588e+02 
       6.112585539711e-03       6.646887598823e+02 
       6.241519823668e-03       6.728864549204e+02 
       6.370598050881e-03       6.809030053080e+02 
       6.499812585389e-03       6.887406792535e+02 
       6.629156358652e-03       6.964017625316e+02 
       6.758622820736e-03       7.038880557095e+02 
       6.888205896353e-03       7.112017068363e+02 
       7.017899945196e-03       7.183451566769e+02 
       7.147699726128e-03       7.253205703877e+02 
       7.277600364802e-03       7.321297039380e+02 
       7.407597324333e-03       7.387752550695e+02 
       7.537686378721e-03       7.452591401935e+02 
       7.667863588729e-03       7.515833105359e+02 
       7.798125279958e-03       7.577506055464e+02 
       7.928468022901e-03       7.637629365221e+02 
       8.058888614779e-03       7.696221468048e+02 
       8.189384062974e-03       7.753305293819e+02 
       8.319951569909e-03       7.808901841797e+02 
       8.450588519223e-03       7.863032217522e+02 
       8.581292463131e-03       7.915714182112e+02 
       8.712061110845e-03       7.966977341163e+02 
       8.842892317960e-03       8.016834835829e+02 
       8.973784076712e-03       8.065306875353e+02 
       9.104734507036e-03       8.112415747866e+02 
       9.235741848337e-03       8.158179343426e+02 
       9.366804451931e-03       8.202618205028e+02 
       9.497920774066e-03       8.245749476666e+02 
       9.629089369506e-03       8.287594423428e+02 
       9.760308885604e-03       8.328170598685e+02 
       9.891578056831e-03       8.367494745223e+02 
       1.002289569972e-02       8.405585641595e+02 
       1.015426070821e-02       8.442462046377e+02 
       1.028567204931e-02       8.478143662058e+02 
       1.041712875908e-02       8.512645742561e+02 
       1.054862993897e-02       8.545981949735e+02 
       1.068017475236e-02       8.578171548392e+02 
       1.081176242137e-02       8.609231968177e+02 
       1.094339222391e-02       8.639180604368e+02 
       1.107506349097e-02       8.668028331335e+02 
       1.120677560401e-02       8.695810327338e+02 
       1.133852799265e-02       8.722517067471e+02 
       1.147032013246e-02       8.748167560045e+02 
       1.160215154290e-02       8.772787724839e+02 
       1.173402178546e-02       8.796386383268e+02 
       1.186593046185e-02       8.818975851809e+02 
       1.199787721238e-02       8.840574964269e+02 
       1.212986171447e-02       8.861197902175e+02 
       1.226188368116e-02       8.880855115062e+02 
       1.239394285986e-02       8.899563420412e+02 
       1.252603903110e-02       8.917335547801e+02 
       1.265817200739e-02       8.934186146383e+02 
       1.279034163215e-02       8.950125322791e+02 
       1.292254777878e-02       8.965172099133e+02 
       1.305479034968e-02       8.979333486948e+02 
       1.318706927550e-02       8.992623911174e+02 
       1.331938451426e-02       9.005058086973e+02 
       1.345173605071e-02       9.016646595920e+02 
       1.358412389562e-02       9.027402263178e+02 
       1.371654808519e-02       9.037337308629e+02 
       1.384900868049e-02       9.046467544317e+02 
       1.398150576690e-02       9.054797737149e+02 
       1.411403945369e-02       9.062346175798e+02 
       1.424660987359e-02       9.069123890669e+02 
       1.437921718233e-02       9.075135150178e+02 
       1.451186155836e-02       9.080397235918e+02 
       1.464454320250e-02       9.084919955196e+02 
       1.477726233763e-02       9.088713392163e+02 
       1.491001920850e-02       9.091791296999e+02 
       1.504281408144e-02       9.094163137613e+02 
       1.517564724420e-02       9.095841567488e+02 
       1.530851900579e-02       9.096833443482e+02 
       1.544142969630e-02       9.097149120157e+02 
       1.557437966684e-02       9.096804234884e+02 
       1.570736928943e-02       9.095804117889e+02 
       1.584039895693e-02       9.094161569626e+02 
       1.597346908298e-02       9.091889973839e+02 
       1.610658010204e-02       9.088991865689e+02 
       1.623973246933e-02       9.085481670360e+02 
       1.637292666089e-02       9.081369938206e+02 
       1.650616317360e-02       9.076663804638e+02 
       1.663944252528e-02       9.071370678176e+02 
       1.677276525473e-02       9.065508334889e+02 
       1.690613192186e-02       9.059078952416e+02 
       1.703954310780e-02       9.052098862498e+02 
       1.717299941507e-02       9.044563031494e+02 
       1.730650146766e-02       9.036494978269e+02 
       1.744004991130e-02       9.027897468548e+02 
       1.757364541359e-02       9.018780738014e+02 
       1.770728866421e-02       9.009153521989e+02 
       1.784098037520e-02       8.999023602383e+02 
       1.797472128114e-02       8.988405704394e+02 
       1.810851213944e-02       8.977295029961e+02 
       1.824235373063e-02       8.965711446319e+02 
       1.837624685860e-02       8.953664761255e+02 
       1.851019235100e-02       8.941150069206e+02 
       1.864419105949e-02       8.928187643919e+02 
       1.877824386010e-02       8.914777964471e+02 
       1.891235165363e-02       8.900950037236e+02 
       1.904651536598e-02       8.886666897859e+02 
       1.918073594856e-02       8.871976781895e+02 
       1.931501437874e-02       8.856879847093e+02 
       1.944935166022e-02       8.841367262050e+02 
       1.958374882352e-02       8.825460887973e+02 
       1.971820692641e-02       8.809168673022e+02 
       1.985272705444e-02       8.792494996152e+02 
       1.998731032141e-02       8.775436750607e+02 
       2.012195786988e-02       8.758010043319e+02 
       2.025667087175e-02       8.740232898111e+02 
       2.039145052878e-02       8.722099448361e+02 
       2.052629807319e-02       8.703618315406e+02 
       2.066121476824e-02       8.684795934468e+02 
       2.079620190886e-02       8.665636946788e+02 
       2.093126082231e-02       8.646162058396e+02 
       2.106639286880e-02       8.626350625300e+02 
       2.120159944219e-02       8.606245569860e+02 
       2.133688197070e-02       8.585825742934e+02 
       2.147224191765e-02       8.565106138453e+02 
       2.160768078216e-02       8.544082062709e+02 
       2.174320010000e-02       8.522773623046e+02 
       2.187880144433e-02       8.501207720505e+02 
       2.201448642654e-02       8.479335209161e+02 
       2.215025669712e-02       8.457219458200e+02 
       2.228611394651e-02       8.434843177088e+02 
       2.242205990603e-02       8.412197355246e+02 
       2.255809634881e-02       8.389298342261e+02 
       2.269422509071e-02       8.366146639614e+02 
       2.283044799139e-02       8.342792171749e+02 
       2.296676695527e-02       8.319180016965e+02 
       2.310318393262e-02       8.295354412607e+02 
       2.323970092062e-02       8.271297704704e+02 
       2.337631996451e-02       8.247032261211e+02 
       2.351304315873e-02       8.222532480118e+02 
       2.364987264812e-02       8.197874545221e+02 
       2.378681062915e-02       8.173013383958e+02 
       2.392385935119e-02       8.147929346790e+02 
       2.406102111783e-02       8.122665140954e+02 
       2.419829828820e-02       8.097225551066e+02 
       2.433569327838e-02       8.071614476428e+02 
       2.447320856286e-02       8.045812509414e+02 
       2.461084667600e-02       8.019876087187e+02 
       2.474861021354e-02       7.993751355926e+02 
       2.488650183423e-02       7.967482872543e+02 
       2.502452426141e-02       7.941056393485e+02 
       2.516268028473e-02       7.914496503617e+02 
       2.530097276186e-02       7.887779629794e+02 
       2.543940462031e-02       7.860926484530e+02 
       2.557797885926e-02       7.833966793258e+02 
       2.571669855148e-02       7.806861362232e+02 
       2.585556684531e-02       7.779622941822e+02 
       2.599458696671e-02       7.752285088464e+02 
       2.613376222134e-02       7.724827596487e+02 
       2.627309599677e-02       7.697259024684e+02 
       2.641259176475e-02       7.669582854598e+02 
       2.655225308349e-02       7.641805350621e+02 
       2.669208360010e-02       7.613932773294e+02 
       2.683208705309e-02       7.585965963216e+02 
       2.697226727495e-02       7.557915634395e+02 
       2.711262819481e-02       7.529772846861e+02 
       2.725317384118e-02       7.501564859473e+02 
       2.739390834487e-02       7.473262919476e+02 
       2.753483594189e-02       7.444905453679e+02 
       2.767596097655e-02       7.416464406229e+02 
       2.781728790465e-02       7.387968943253e+02 
       2.795882129673e-02       7.359409193619e+02 
       2.810056584150e-02       7.330781668176e+02 
       2.824252634939e-02       7.302106736444e+02 
       2.838470775622e-02       7.273362050317e+02 
       2.852711512698e-02       7.244597040814e+02 
       2.866975365978e-02       7.215772270323e+02 
       2.881262868997e-02       7.186902288456e+02 
       2.895574569435e-02       7.157997852809e+02 
       2.909911029562e-02       7.129061369820e+02 
       2.924272826696e-02       7.100096625158e+02 
       2.938660553674e-02       7.071091670368e+02 
       2.953074819355e-02       7.042063166463e+02 
       2.967516249126e-02       7.013022727333e+02 
       2.981985485444e-02       6.983964666581e+02 
       2.996483188387e-02       6.954858662054e+02 
       3.011010036233e-02       6.925769151169e+02 
       3.025566726066e-02       6.896641186532e+02 
       3.040153974397e-02       6.867508644147e+02 
       3.054772517824e-02       6.838363213486e+02 
       3.069423113704e-02       6.809251142746e+02 
       3.084106540870e-02       6.780106509419e+02 
       3.098823600361e-02       6.750942446333e+02 
       3.113575116200e-02       6.721792581651e+02 
       3.128361936193e-02       6.692668028505e+02 
       3.143184932770e-02       6.663540448501e+02 
       3.158045003860e-02       6.634416764476e+02 
       3.172943073803e-02       6.605296610375e+02 
       3.187880094308e-02       6.576205429277e+02 
       3.202857045451e-02       6.547127923224e+02 
       3.217874936717e-02       6.518026146704e+02 
       3.232934808093e-02       6.488991469440e+02 
       3.248037731209e-02       6.459950212685e+02 
       3.263184810537e-02       6.430944290861e+02 
       3.278377184639e-02       6.401945551935e+02 
       3.293616027481e-02       6.372979277995e+02 
       3.308902549808e-02       6.344027035679e+02 
       3.324238000587e-02       6.315128846600e+02 
       3.339623668519e-02       6.286238588252e+02 
       3.355060883625e-02       6.257388928770e+02 
       3.370551018917e-02       6.228603010159e+02 
       3.386095492146e-02       6.199824377609e+02 
       3.401695767648e-02       6.171062464297e+02 
       3.417353358273e-02       6.142326154525e+02 
       3.433069827429e-02       6.113682255903e+02 
       3.448846791224e-02       6.085038440626e+02 
       3.464685920721e-02       6.056433182429e+02 
       3.480588944326e-02       6.027869955425e+02 
       3.496557650290e-02       5.999359925762e+02 
       3.512593889362e-02       5.970883995066e+02 
       3.528699577579e-02       5.942441453812e+02 
       3.544876699223e-02       5.914042388282e+02 
       3.561127309936e-02       5.885715087428e+02 
       3.577453540021e-02       5.857405685273e+02 
       3.593857597932e-02       5.829150771171e+02 
       3.610341773970e-02       5.800941645190e+02 
       3.626908444196e-02       5.772774972963e+02 
       3.643560074585e-02       5.744659147046e+02 
       3.660299225428e-02       5.716586009987e+02 
       3.677128556006e-02       5.688574509716e+02 
       3.694050829560e-02       5.660589519212e+02 
       3.711068918564e-02       5.632659713548e+02 
       3.728185810350e-02       5.604781083365e+02 
       3.745404613083e-02       5.576941403750e+02 
       3.762728562135e-02       5.549156153058e+02 
       3.780161026882e-02       5.521407462447e+02 
       3.797705517955e-02       5.493741582722e+02 
       3.815365694988e-02       5.466068993648e+02 
       3.833145374895e-02       5.438479473414e+02 
       3.851048540736e-02       5.410920962773e+02 
       3.869079351200e-02       5.383419496089e+02 
       3.887242150781e-02       5.355965256472e+02 
       3.905541480685e-02       5.328536676617e+02 
       3.923982090554e-02       5.301161837922e+02 
       3.942568951059e-02       5.273835727495e+02 
       3.961307267459e-02       5.246552820471e+02 
       3.980202494203e-02       5.219300993945e+02 
       3.999260350675e-02       5.192101612408e+02 
       4.018486838197e-02       5.164916578891e+02 
       4.037888258399e-02       5.137794015268e+02 
       4.057471233098e-02       5.110709483033e+02 
       4.077242725835e-02       5.083617545464e+02 
       4.097210065233e-02       5.056582307204e+02 
       4.117380970370e-02       5.029610374634e+02 
       4.137763578359e-02       5.002640007608e+02 
       4.158366474394e-02       4.975705637060e+02 
       4.179198724509e-02       4.948785315517e+02 
       4.200269911343e-02       4.921906545115e+02 
       4.221590173266e-02       4.895011069208e+02 
       4.243170247227e-02       4.868178333411e+02 
       4.265021515755e-02       4.841333956908e+02 
       4.287156058610e-02       4.814512569856e+02 
       4.309586709635e-02       4.787719519809e+02 
       4.332327119429e-02       4.760904610808e+02 
       4.355391824587e-02       4.734117170775e+02 
       4.378796324309e-02       4.707319381295e+02 
       4.402557165354e-02       4.680515904055e+02 
       4.426692036408e-02       4.653717113581e+02 
       4.451219873159e-02       4.626898038605e+02 
       4.476160975508e-02       4.600035896902e+02 
       4.501537138651e-02       4.573193903323e+02 
       4.527371799972e-02       4.546306121783e+02 
       4.553690204080e-02       4.519386840605e+02 
       4.580519588688e-02       4.492442685480e+02 
       4.607889394492e-02       4.465422801037e+02 
       4.635831502817e-02       4.438376920482e+02 
       4.664380505432e-02       4.411259625012e+02 
       4.693574011810e-02       4.384088680575e+02 
       4.723453000061e-02       4.356821210349e+02 
       4.754062219050e-02       4.329464601553e+02 
       4.785450650651e-02       4.302028850832e+02 
       4.817672042973e-02       4.274473843714e+02 
       4.850785527637e-02       4.246798046170e+02 
       4.884856337005e-02       4.218978822686e+02 
       4.919956640770e-02       4.191018130703e+02 
       4.956166525668e-02       4.162887622445e+02 
       4.993575147569e-02       4.134566700948e+02 
       5.032282092111e-02       4.106040903865e+02 
       5.072398988759e-02       4.077273981586e+02 
       5.114051434239e-02       4.048260922546e+02 
       5.157381295387e-02       4.018957057357e+02 
       5.202549479355e-02       3.989328617276e+02 
       5.249739282000e-02       3.959336879197e+02 
       5.299160454377e-02       3.928945483604e+02 
       5.351054164173e-02       3.898078498394e+02 
       5.405699075365e-02       3.866696955246e+02 
       5.463418826930e-02       3.834710269512e+02 
       5.524591260822e-02       3.802035841819e+02 
       5.589659829214e-02       3.768552398216e+02 
       5.659147694012e-02       3.734135870992e+02 
       5.733675099377e-02       3.698595525437e+02 
       5.813980607534e-02       3.661723112956e+02 
       5.900946649822e-02       3.623223331079e+02 
       5.995629379921e-02       3.582742594920e+02 
       6.099291687646e-02       3.539768169644e+02 
       6.213435845134e-02       3.493661240374e+02 
       6.339827673564e-02       3.443547777331e+02 
       6.480496158167e-02       3.388248918474e+02 
