# Matter power spectrum P(k) at redshift z=3.5
# for k=1.03995e-05 to 1243 h/Mpc,
# number of wavenumbers equal to 625
#    1:k (h/Mpc)              2:P (Mpc/h)^3        
       1.039953543896e-05       3.629907607364e+00 
       2.362715252707e-05       8.136719869180e+00 
       3.690288557276e-05       1.260878091784e+01 
       5.026440451877e-05       1.707627353582e+01 
       6.375002738089e-05       2.155973214109e+01 
       7.739908048046e-05       2.607647937125e+01 
       9.125227067342e-05       3.064255490085e+01 
       1.053520747789e-04       3.527356881471e+01 
       1.197431514480e-04       3.998518476783e+01 
       1.344727807492e-04       4.479344838389e+01 
       1.495913367397e-04       4.971504535625e+01 
       1.651527981975e-04       5.476752599697e+01 
       1.812153024208e-04       5.996951706755e+01 
       1.978417464781e-04       6.534092925366e+01 
       2.151004393591e-04       7.090316766286e+01 
       2.330658069688e-04       7.667934757093e+01 
       2.518191495799e-04       8.269451693947e+01 
       2.714494479115e-04       8.897588381254e+01 
       2.920542090557e-04       9.555304609688e+01 
       3.137403365828e-04       1.024582170558e+02 
       3.366249998083e-04       1.097264374294e+02 
       3.608364648896e-04       1.173957602617e+02 
       3.865148347006e-04       1.255073894732e+02 
       4.138126251223e-04       1.341057473391e+02 
       4.428950827964e-04       1.432384377981e+02 
       4.739401247143e-04       1.529560678116e+02 
       5.071377557701e-04       1.633118782104e+02 
       5.426888010081e-04       1.743611355744e+02 
       5.808027813663e-04       1.861602353426e+02 
       6.216947741287e-04       1.987654712872e+02 
       6.655811422290e-04       2.122314510928e+02 
       7.126740992655e-04       2.266091645889e+02 
       7.631752041348e-04       2.419437583545e+02 
       8.172680453872e-04       2.582721333891e+02 
       8.751105612573e-04       2.756205303515e+02 
       9.368276115359e-04       2.940023302876e+02 
       1.002504525669e-03       3.134163176424e+02 
       1.072182352673e-03       3.338456316002e+02 
       1.145855406415e-03       3.552575796731e+02 
       1.223471442598e-03       3.776043702817e+02 
       1.304934468295e-03       4.008247201376e+02 
       1.390109845146e-03       4.248461405504e+02 
       1.478831079880e-03       4.495876820673e+02 
       1.570907553874e-03       4.749628295439e+02 
       1.666132440652e-03       5.008822904958e+02 
       1.764290173008e-03       5.272565091613e+02 
       1.865163002780e-03       5.539977487723e+02 
       1.968536395812e-03       5.810217275539e+02 
       2.074203182650e-03       6.082487979876e+02 
       2.181966519942e-03       6.356047162779e+02 
       2.291641802565e-03       6.630204129213e+02 
       2.403057707652e-03       6.904340759406e+02 
       2.516056559817e-03       7.177897480687e+02 
       2.630494193709e-03       7.450371313649e+02 
       2.746239465532e-03       7.721315298930e+02 
       2.863173536797e-03       7.990335550884e+02 
       2.981189025715e-03       8.257086400759e+02 
       3.100189097064e-03       8.521266715308e+02 
       3.220086540844e-03       8.782614630961e+02 
       3.340802873876e-03       9.040904252154e+02 
       3.462267486105e-03       9.295940757825e+02 
       3.584416844309e-03       9.547558431434e+02 
       3.707193759434e-03       9.795615865596e+02 
       3.830546719295e-03       1.003999537037e+03 
       3.954429285456e-03       1.028059784738e+03 
       4.078799551231e-03       1.051734482845e+03 
       4.203619656709e-03       1.075016983840e+03 
       4.328855356143e-03       1.097902670335e+03 
       4.454475632939e-03       1.120387582499e+03 
       4.580452357514e-03       1.142469428546e+03 
       4.706759983548e-03       1.164146444912e+03 
       4.833375278454e-03       1.185418113774e+03 
       4.960277084235e-03       1.206284641613e+03 
       5.087446105271e-03       1.226746375365e+03 
       5.214864719920e-03       1.246805068776e+03 
       5.342516813153e-03       1.266462161867e+03 
       5.470387627763e-03       1.285719961550e+03 
       5.598463631961e-03       1.304581560348e+03 
       5.726732401438e-03       1.323049929513e+03 
       5.855182514195e-03       1.341127481150e+03 
       5.983803456649e-03       1.358818840253e+03 
       6.112585539711e-03       1.376127040893e+03 
       6.241519823668e-03       1.393056951143e+03 
       6.370598050881e-03       1.409611437378e+03 
       6.499812585389e-03       1.425795234332e+03 
       6.629156358652e-03       1.441613084973e+03 
       6.758622820736e-03       1.457068809295e+03 
       6.888205896353e-03       1.472166811302e+03 
       7.017899945196e-03       1.486912223048e+03 
       7.147699726128e-03       1.501309533971e+03 
       7.277600364802e-03       1.515362410969e+03 
       7.407597324333e-03       1.529076452658e+03 
       7.537686378721e-03       1.542455633545e+03 
       7.667863588729e-03       1.555504046119e+03 
       7.798125279958e-03       1.568227596279e+03 
       7.928468022901e-03       1.580630269118e+03 
       8.058888614779e-03       1.592715888964e+03 
       8.189384062974e-03       1.604489238100e+03 
       8.319951569909e-03       1.615954654513e+03 
       8.450588519223e-03       1.627116553904e+03 
       8.581292463131e-03       1.637978633028e+03 
       8.712061110845e-03       1.648547030124e+03 
       8.842892317960e-03       1.658824489308e+03 
       8.973784076712e-03       1.668815224558e+03 
       9.104734507036e-03       1.678523688166e+03 
       9.235741848337e-03       1.687956567885e+03 
       9.366804451931e-03       1.697113176844e+03 
       9.497920774066e-03       1.705999215247e+03 
       9.629089369506e-03       1.714619060876e+03 
       9.760308885604e-03       1.722976407749e+03 
       9.891578056831e-03       1.731074731479e+03 
       1.002289569972e-02       1.738917917693e+03 
       1.015426070821e-02       1.746509870702e+03 
       1.028567204931e-02       1.753854668956e+03 
       1.041712875908e-02       1.760955477075e+03 
       1.054862993897e-02       1.767815123285e+03 
       1.068017475236e-02       1.774437605012e+03 
       1.081176242137e-02       1.780826541826e+03 
       1.094339222391e-02       1.786985545106e+03 
       1.107506349097e-02       1.792916875093e+03 
       1.120677560401e-02       1.798624649260e+03 
       1.133852799265e-02       1.804112692096e+03 
       1.147032013246e-02       1.809382349346e+03 
       1.160215154290e-02       1.814439015738e+03 
       1.173402178546e-02       1.819284522989e+03 
       1.186593046185e-02       1.823921419111e+03 
       1.199787721238e-02       1.828353595717e+03 
       1.212986171447e-02       1.832583978195e+03 
       1.226188368116e-02       1.836614723474e+03 
       1.239394285986e-02       1.840449305352e+03 
       1.252603903110e-02       1.844090356427e+03 
       1.265817200739e-02       1.847540907296e+03 
       1.279034163215e-02       1.850803053026e+03 
       1.292254777878e-02       1.853880736102e+03 
       1.305479034968e-02       1.856775420212e+03 
       1.318706927550e-02       1.859490098832e+03 
       1.331938451426e-02       1.862027834622e+03 
       1.345173605071e-02       1.864390826974e+03 
       1.358412389562e-02       1.866581750034e+03 
       1.371654808519e-02       1.868603292885e+03 
       1.384900868049e-02       1.870458529857e+03 
       1.398150576690e-02       1.872148370655e+03 
       1.411403945369e-02       1.873676597788e+03 
       1.424660987359e-02       1.875045475576e+03 
       1.437921718233e-02       1.876256103016e+03 
       1.451186155836e-02       1.877311936653e+03 
       1.464454320250e-02       1.878215060362e+03 
       1.477726233763e-02       1.878967512399e+03 
       1.491001920850e-02       1.879572178401e+03 
       1.504281408144e-02       1.880031009994e+03 
       1.517564724420e-02       1.880346629769e+03 
       1.530851900579e-02       1.880520462184e+03 
       1.544142969630e-02       1.880554656757e+03 
       1.557437966684e-02       1.880452452131e+03 
       1.570736928943e-02       1.880214955486e+03 
       1.584039895693e-02       1.879844819862e+03 
       1.597346908298e-02       1.879344822166e+03 
       1.610658010204e-02       1.878715484934e+03 
       1.623973246933e-02       1.877959796747e+03 
       1.637292666089e-02       1.877079941841e+03 
       1.650616317360e-02       1.876077407046e+03 
       1.663944252528e-02       1.874953722544e+03 
       1.677276525473e-02       1.873712568154e+03 
       1.690613192186e-02       1.872354394677e+03 
       1.703954310780e-02       1.870882583703e+03 
       1.717299941507e-02       1.869296092482e+03 
       1.730650146766e-02       1.867599798186e+03 
       1.744004991130e-02       1.865794253966e+03 
       1.757364541359e-02       1.863881590540e+03 
       1.770728866421e-02       1.861863610060e+03 
       1.784098037520e-02       1.859741922631e+03 
       1.797472128114e-02       1.857519570408e+03 
       1.810851213944e-02       1.855195566892e+03 
       1.824235373063e-02       1.852774012907e+03 
       1.837624685860e-02       1.850256941429e+03 
       1.851019235100e-02       1.847643328288e+03 
       1.864419105949e-02       1.844937377056e+03 
       1.877824386010e-02       1.842139177606e+03 
       1.891235165363e-02       1.839254727284e+03 
       1.904651536598e-02       1.836276386503e+03 
       1.918073594856e-02       1.833214125867e+03 
       1.931501437874e-02       1.830067975957e+03 
       1.944935166022e-02       1.826836110332e+03 
       1.958374882352e-02       1.823523060203e+03 
       1.971820692641e-02       1.820130451036e+03 
       1.985272705444e-02       1.816659200995e+03 
       1.998731032141e-02       1.813108665282e+03 
       2.012195786988e-02       1.809482179391e+03 
       2.025667087175e-02       1.805783468258e+03 
       2.039145052878e-02       1.802011315036e+03 
       2.052629807319e-02       1.798167514477e+03 
       2.066121476824e-02       1.794253394927e+03 
       2.079620190886e-02       1.790269919154e+03 
       2.093126082231e-02       1.786221369348e+03 
       2.106639286880e-02       1.782103488263e+03 
       2.120159944219e-02       1.777925149990e+03 
       2.133688197070e-02       1.773681974901e+03 
       2.147224191765e-02       1.769377081781e+03 
       2.160768078216e-02       1.765009502570e+03 
       2.174320010000e-02       1.760583393189e+03 
       2.187880144433e-02       1.756104320327e+03 
       2.201448642654e-02       1.751562135221e+03 
       2.215025669712e-02       1.746969933984e+03 
       2.228611394651e-02       1.742324152938e+03 
       2.242205990603e-02       1.737622933829e+03 
       2.255809634881e-02       1.732869660254e+03 
       2.269422509071e-02       1.728064442570e+03 
       2.283044799139e-02       1.723217599430e+03 
       2.296676695527e-02       1.718317787008e+03 
       2.310318393262e-02       1.713374152236e+03 
       2.323970092062e-02       1.708383057725e+03 
       2.337631996451e-02       1.703349111327e+03 
       2.351304315873e-02       1.698267046122e+03 
       2.364987264812e-02       1.693152597770e+03 
       2.378681062915e-02       1.687996458842e+03 
       2.392385935119e-02       1.682794564449e+03 
       2.406102111783e-02       1.677555755944e+03 
       2.419829828820e-02       1.672281014508e+03 
       2.433569327838e-02       1.666971137506e+03 
       2.447320856286e-02       1.661622135913e+03 
       2.461084667600e-02       1.656245660832e+03 
       2.474861021354e-02       1.650830603920e+03 
       2.488650183423e-02       1.645386120115e+03 
       2.502452426141e-02       1.639909305439e+03 
       2.516268028473e-02       1.634405247231e+03 
       2.530097276186e-02       1.628869054323e+03 
       2.543940462031e-02       1.623305007055e+03 
       2.557797885926e-02       1.617719255402e+03 
       2.571669855148e-02       1.612103660460e+03 
       2.585556684531e-02       1.606460916591e+03 
       2.599458696671e-02       1.600797903428e+03 
       2.613376222134e-02       1.595110437172e+03 
       2.627309599677e-02       1.589400325576e+03 
       2.641259176475e-02       1.583668248034e+03 
       2.655225308349e-02       1.577915535108e+03 
       2.669208360010e-02       1.572143428965e+03 
       2.683208705309e-02       1.566352116140e+03 
       2.697226727495e-02       1.560543798530e+03 
       2.711262819481e-02       1.554716638888e+03 
       2.725317384118e-02       1.548876243584e+03 
       2.739390834487e-02       1.543016690469e+03 
       2.753483594189e-02       1.537145894459e+03 
       2.767596097655e-02       1.531258070269e+03 
       2.781728790465e-02       1.525359220320e+03 
       2.795882129673e-02       1.519447319872e+03 
       2.810056584150e-02       1.513521626883e+03 
       2.824252634939e-02       1.507586347112e+03 
       2.838470775622e-02       1.501636853868e+03 
       2.852711512698e-02       1.495683362635e+03 
       2.866975365978e-02       1.489717719171e+03 
       2.881262868997e-02       1.483742925270e+03 
       2.895574569435e-02       1.477761204103e+03 
       2.909911029562e-02       1.471773031602e+03 
       2.924272826696e-02       1.465779190205e+03 
       2.938660553674e-02       1.459777186068e+03 
       2.953074819355e-02       1.453770529226e+03 
       2.967516249126e-02       1.447761539677e+03 
       2.981985485444e-02       1.441749042826e+03 
       2.996483188387e-02       1.435726806141e+03 
       3.011010036233e-02       1.429708147734e+03 
       3.025566726066e-02       1.423681684181e+03 
       3.040153974397e-02       1.417654384440e+03 
       3.054772517824e-02       1.411624611880e+03 
       3.069423113704e-02       1.405601824389e+03 
       3.084106540870e-02       1.399572443930e+03 
       3.098823600361e-02       1.393539198216e+03 
       3.113575116200e-02       1.387508996885e+03 
       3.128361936193e-02       1.381484145220e+03 
       3.143184932770e-02       1.375458782539e+03 
       3.158045003860e-02       1.369434343207e+03 
       3.172943073803e-02       1.363410755165e+03 
       3.187880094308e-02       1.357393269763e+03 
       3.202857045451e-02       1.351378712845e+03 
       3.217874936717e-02       1.345359247779e+03 
       3.232934808093e-02       1.339353757403e+03 
       3.248037731209e-02       1.333347003490e+03 
       3.263184810537e-02       1.327347655786e+03 
       3.278377184639e-02       1.321349919507e+03 
       3.293616027481e-02       1.315358943503e+03 
       3.308902549808e-02       1.309370988412e+03 
       3.324238000587e-02       1.303394281562e+03 
       3.339623668519e-02       1.297419293857e+03 
       3.355060883625e-02       1.291452819945e+03 
       3.370551018917e-02       1.285499568374e+03 
       3.386095492146e-02       1.279547920854e+03 
       3.401695767648e-02       1.273599812584e+03 
       3.417353358273e-02       1.267657080396e+03 
       3.433069827429e-02       1.261733497737e+03 
       3.448846791224e-02       1.255810026533e+03 
       3.464685920721e-02       1.249894612651e+03 
       3.480588944326e-02       1.243987948302e+03 
       3.496557650290e-02       1.238092337060e+03 
       3.512593889362e-02       1.232203859986e+03 
       3.528699577579e-02       1.226322349290e+03 
       3.544876699223e-02       1.220449874207e+03 
       3.561127309936e-02       1.214592313455e+03 
       3.577453540021e-02       1.208738520512e+03 
       3.593857597932e-02       1.202896063951e+03 
       3.610341773970e-02       1.197063130683e+03 
       3.626908444196e-02       1.191239042802e+03 
       3.643560074585e-02       1.185425521554e+03 
       3.660299225428e-02       1.179620887067e+03 
       3.677128556006e-02       1.173829058331e+03 
       3.694050829560e-02       1.168042782154e+03 
       3.711068918564e-02       1.162267974635e+03 
       3.728185810350e-02       1.156503812482e+03 
       3.745404613083e-02       1.150747771237e+03 
       3.762728562135e-02       1.145003047912e+03 
       3.780161026882e-02       1.139265961072e+03 
       3.797705517955e-02       1.133546049103e+03 
       3.815365694988e-02       1.127824829469e+03 
       3.833145374895e-02       1.122120861905e+03 
       3.851048540736e-02       1.116423384783e+03 
       3.869079351200e-02       1.110737777214e+03 
       3.887242150781e-02       1.105062002922e+03 
       3.905541480685e-02       1.099391645238e+03 
       3.923982090554e-02       1.093732454855e+03 
       3.942568951059e-02       1.088083439483e+03 
       3.961307267459e-02       1.082443437713e+03 
       3.980202494203e-02       1.076809976745e+03 
       3.999260350675e-02       1.071187443717e+03 
       4.018486838197e-02       1.065567987452e+03 
       4.037888258399e-02       1.059961543390e+03 
       4.057471233098e-02       1.054363043682e+03 
       4.077242725835e-02       1.048763159474e+03 
       4.097210065233e-02       1.043175099660e+03 
       4.117380970370e-02       1.037600203043e+03 
       4.137763578359e-02       1.032025771760e+03 
       4.158366474394e-02       1.026458885937e+03 
       4.179198724509e-02       1.020895022048e+03 
       4.200269911343e-02       1.015339865686e+03 
       4.221590173266e-02       1.009781373122e+03 
       4.243170247227e-02       1.004235945647e+03 
       4.265021515755e-02       9.986882290437e+02 
       4.287156058610e-02       9.931453708178e+02 
       4.309586709635e-02       9.876084876026e+02 
       4.332327119429e-02       9.820671780218e+02 
       4.355391824587e-02       9.765316448360e+02 
       4.378796324309e-02       9.709940720288e+02 
       4.402557165354e-02       9.654554182145e+02 
       4.426692036408e-02       9.599178059564e+02 
       4.451219873159e-02       9.543760728216e+02 
       4.476160975508e-02       9.488255174450e+02 
       4.501537138651e-02       9.432791891263e+02 
       4.527371799972e-02       9.377234319358e+02 
       4.553690204080e-02       9.321612157274e+02 
       4.580519588688e-02       9.265938821717e+02 
       4.607889394492e-02       9.210109542939e+02 
       4.635831502817e-02       9.154226387735e+02 
       4.664380505432e-02       9.098195890250e+02 
       4.693574011810e-02       9.042054162425e+02 
       4.723453000061e-02       8.985713070289e+02 
       4.754062219050e-02       8.929187541341e+02 
       4.785450650651e-02       8.872497918271e+02 
       4.817672042973e-02       8.815561471831e+02 
       4.850785527637e-02       8.758375020750e+02 
       4.884856337005e-02       8.700891632438e+02 
       4.919956640770e-02       8.643115532393e+02 
       4.956166525668e-02       8.584987706455e+02 
       4.993575147569e-02       8.526465901213e+02 
       5.032282092111e-02       8.467520235315e+02 
       5.072398988759e-02       8.408075837497e+02 
       5.114051434239e-02       8.348122089635e+02 
       5.157381295387e-02       8.287567335005e+02 
       5.202549479355e-02       8.226341412716e+02 
       5.249739282000e-02       8.164364823306e+02 
       5.299160454377e-02       8.101562367030e+02 
       5.351054164173e-02       8.037777256272e+02 
       5.405699075365e-02       7.972929266031e+02 
       5.463418826930e-02       7.906831357392e+02 
       5.524591260822e-02       7.839312648506e+02 
       5.589659829214e-02       7.770123188680e+02 
       5.659147694012e-02       7.699006556479e+02 
       5.733675099377e-02       7.625568475031e+02 
       5.813980607534e-02       7.549379105838e+02 
       5.900946649822e-02       7.469828764413e+02 
       5.995629379921e-02       7.386187232478e+02 
       6.099291687646e-02       7.297396223002e+02 
       6.213435845134e-02       7.202137985394e+02 
       6.339827673564e-02       7.098611208278e+02 
       6.480496158167e-02       6.984386359333e+02 
