# dimensionless total [l(l+1)/2pi] C_l's
# for l=2 to 3000, i.e. number of multipoles equal to 2999
#
# -> if you prefer output in CAMB/HealPix/LensPix units/order, set 'format' to 'camb' in input file
# -> if you don't want to see such a header, set 'headers' to 'no' in input file
# -> for CMB lensing (phi), these are C_l^phi-phi for the lensing potential.
#    Remember the conversion factors:
#    C_l^dd (deflection) = l(l+1) C_l^phi-phi
#    C_l^gg (shear/convergence) = 1/4 (l(l+1))^2 C_l^phi-phi
#
# 1:l     2:TT                     3:EE                     4:TE                     5:BB                     6:phiphi                 7:TPhi                   8:Ephi               
    2       1.367926113888e-10       4.940201930627e-15       3.764234619820e-13       0.000000000000e+00       8.046605891356e-09       4.495903826074e-10      -1.996080408371e-12 
    3       1.295687555908e-10       7.149016769706e-15       4.448303984139e-13       0.000000000000e+00       4.961071052283e-09       3.184293919519e-10      -1.621739008836e-12 
    4       1.225655081158e-10       7.037538750413e-15       4.344083081480e-13       0.000000000000e+00       3.442486128462e-09       2.408380640605e-10      -1.166535561633e-12 
    5       1.172344723808e-10       5.383722754784e-15       3.849336340334e-13       0.000000000000e+00       2.561926222420e-09       1.899907164421e-10      -7.489131067993e-13 
    6       1.134980388454e-10       3.396243706563e-15       3.211116684084e-13       0.000000000000e+00       1.995473766048e-09       1.542865857612e-10      -4.077639624877e-13 
    7       1.110181030251e-10       1.896278848680e-15       2.584983194087e-13       0.000000000000e+00       1.606111947265e-09       1.280329411261e-10      -1.565349033957e-13 
    8       1.095532459491e-10       1.089532018100e-15       2.052218391483e-13       0.000000000000e+00       1.324661554191e-09       1.081335506627e-10       6.524245286239e-15 
    9       1.088527529128e-10       7.785982674965e-16       1.648570972205e-13       0.000000000000e+00       1.113272415350e-09       9.270271335275e-11       9.275682653242e-14 
   10       1.086844946875e-10       6.762941273589e-16       1.380227576691e-13       0.000000000000e+00       9.498596188707e-10       8.046790053850e-11       1.192933131123e-13 
   11       1.089689738177e-10       6.022593136775e-16       1.232867350624e-13       0.000000000000e+00       8.015098313405e-10       7.102650123950e-11       1.056638740244e-13 
   12       1.096054102732e-10       5.138851682684e-16       1.180714471130e-13       0.000000000000e+00       6.991651705708e-10       6.258686296090e-11       7.029522219658e-14 
   13       1.104512126462e-10       4.397034288850e-16       1.195863637267e-13       0.000000000000e+00       6.152316544923e-10       5.579187461002e-11       2.906769854249e-14 
   14       1.115625084504e-10       4.071433048977e-16       1.252449444900e-13       0.000000000000e+00       5.454797760061e-10       5.001536092679e-11      -7.399559899997e-15 
   15       1.128200620015e-10       4.142729458850e-16       1.328684428896e-13       0.000000000000e+00       4.868298845821e-10       4.505003969232e-11      -3.278988088537e-14 
   16       1.142143637532e-10       4.416405660211e-16       1.409787248579e-13       0.000000000000e+00       4.370168267707e-10       4.081765665866e-11      -4.502892834048e-14 
   17       1.157259069227e-10       4.747003892429e-16       1.488025123541e-13       0.000000000000e+00       3.943320748161e-10       3.716399769567e-11      -4.552875075051e-14 
   18       1.173347225411e-10       5.141412066406e-16       1.560963595737e-13       0.000000000000e+00       3.573251044631e-10       3.395948162580e-11      -3.788139908073e-14 
   19       1.190549647936e-10       5.689601728986e-16       1.630189449998e-13       0.000000000000e+00       3.253962841172e-10       3.115423013092e-11      -2.584228763131e-14 
   20       1.208530428488e-10       6.494681578887e-16       1.698790287627e-13       0.000000000000e+00       2.973059521132e-10       2.865070359690e-11      -1.385781694502e-14 
   21       1.227192348260e-10       7.567396096954e-16       1.770050896841e-13       0.000000000000e+00       2.726054238239e-10       2.642673987278e-11      -4.459094693970e-15 
   22       1.246242817167e-10       8.877769309350e-16       1.847008216474e-13       0.000000000000e+00       2.506963116616e-10       2.444870278953e-11       5.883220848302e-16 
   23       1.265848392302e-10       1.040203389250e-15       1.929524073048e-13       0.000000000000e+00       2.312721261007e-10       2.269088790581e-11       1.251967076334e-15 
   24       1.286091053518e-10       1.211679461456e-15       2.015751864562e-13       0.000000000000e+00       2.138786998944e-10       2.110876241699e-11      -1.574942837456e-15 
   25       1.306879051461e-10       1.402887401022e-15       2.102892961944e-13       0.000000000000e+00       1.983074784658e-10       1.968555968168e-11      -6.448798303333e-15 
   26       1.327949875943e-10       1.615009376777e-15       2.187239003753e-13       0.000000000000e+00       1.842726875146e-10       1.839948646296e-11      -1.155774409221e-14 
   27       1.349416474619e-10       1.847032936408e-15       2.265054342043e-13       0.000000000000e+00       1.716030946095e-10       1.723817505287e-11      -1.567409270160e-14 
   28       1.371398061964e-10       2.097459171791e-15       2.332583316496e-13       0.000000000000e+00       1.600774583310e-10       1.618358613062e-11      -1.781787800169e-14 
   29       1.393937779428e-10       2.367401427676e-15       2.388196715527e-13       0.000000000000e+00       1.496349862505e-10       1.522754124079e-11      -1.793597085707e-14 
   30       1.416915667807e-10       2.659020788300e-15       2.430951294056e-13       0.000000000000e+00       1.401615331537e-10       1.435447933320e-11      -1.636726600985e-14 
   31       1.440112120157e-10       2.974680347314e-15       2.460258899192e-13       0.000000000000e+00       1.314614261300e-10       1.354177057039e-11      -1.362147469058e-14 
   32       1.463585914633e-10       3.316219038406e-15       2.476814717775e-13       0.000000000000e+00       1.234884080251e-10       1.278777972000e-11      -1.036455349833e-14 
   33       1.487412976674e-10       3.685429615438e-15       2.482076444952e-13       0.000000000000e+00       1.161849225733e-10       1.209290711052e-11      -7.453969946661e-15 
   34       1.511596221065e-10       4.083976412637e-15       2.477624961001e-13       0.000000000000e+00       1.094473289545e-10       1.145318952635e-11      -5.726566814884e-15 
   35       1.536133441644e-10       4.512427478795e-15       2.463632430613e-13       0.000000000000e+00       1.032401126762e-10       1.086546702739e-11      -5.195829456364e-15 
   36       1.560955546431e-10       4.970863957450e-15       2.439872582160e-13       0.000000000000e+00       9.751238289879e-11       1.032314772644e-11      -5.570412813288e-15 
   37       1.585956278388e-10       5.459321072630e-15       2.405941776524e-13       0.000000000000e+00       9.218835041647e-11       9.817177235833e-12      -6.497887378921e-15 
   38       1.611189310306e-10       5.978490508498e-15       2.360641885190e-13       0.000000000000e+00       8.725364603051e-11       9.345668244046e-12      -7.702197479118e-15 
   39       1.636725043621e-10       6.529237933937e-15       2.302372387225e-13       0.000000000000e+00       8.269211230608e-11       8.906911686241e-12      -8.882364360143e-15 
   40       1.662591558157e-10       7.112413526876e-15       2.229272899147e-13       0.000000000000e+00       7.845957137860e-11       8.496497437331e-12      -9.670230429613e-15 
   41       1.688782889798e-10       7.728809536581e-15       2.139622456884e-13       0.000000000000e+00       7.449907997109e-11       8.108981475033e-12      -9.738036809879e-15 
   42       1.715298933193e-10       8.379019083447e-15       2.033235979100e-13       0.000000000000e+00       7.079853210821e-11       7.744105582710e-12      -9.173417280999e-15 
   43       1.742110246512e-10       9.063529483733e-15       1.910492788206e-13       0.000000000000e+00       6.734770148359e-11       7.402206429272e-12      -8.219375753394e-15 
   44       1.769142034063e-10       9.782755683338e-15       1.771969836093e-13       0.000000000000e+00       6.412096406298e-11       7.082385372916e-12      -7.176428781426e-15 
   45       1.796310989350e-10       1.053707005864e-14       1.618270506341e-13       0.000000000000e+00       6.108634990164e-11       6.783006857701e-12      -6.337987871144e-15 
   46       1.823658419743e-10       1.132691183256e-14       1.449423847905e-13       0.000000000000e+00       5.823880787470e-11       6.503617540910e-12      -5.765296992974e-15 
   47       1.851250091626e-10       1.215270359188e-14       1.265324605034e-13       0.000000000000e+00       5.557480524070e-11       6.243423149392e-12      -5.451109800904e-15 
   48       1.879137209235e-10       1.301481835601e-14       1.065900494085e-13       0.000000000000e+00       5.308230111372e-11       6.000667424192e-12      -5.381492962097e-15 
   49       1.907354752969e-10       1.391357753822e-14       8.511127978932e-14       0.000000000000e+00       5.074011510193e-11       5.772562341364e-12      -5.535373220669e-15 
   50       1.935921143062e-10       1.484924922529e-14       6.208874046043e-14       0.000000000000e+00       4.852425639249e-11       5.556049938343e-12      -5.880836076416e-15 
   51       1.964840978077e-10       1.582204719557e-14       3.748844776775e-14       0.000000000000e+00       4.643040107197e-11       5.350493465231e-12      -6.363888210215e-15 
   52       1.994100167418e-10       1.683212811030e-14       1.126672928094e-14       0.000000000000e+00       4.445642467344e-11       5.155596098497e-12      -6.915861817996e-15 
   53       2.023663109563e-10       1.787958919630e-14      -1.662362861502e-14       0.000000000000e+00       4.259567837729e-11       4.970603262337e-12      -7.455804966842e-15 
   54       2.053471092754e-10       1.896446622222e-14      -4.623364860325e-14       0.000000000000e+00       4.083668520015e-11       4.794271983857e-12      -7.889875793577e-15 
   55       2.083464662062e-10       2.008674868865e-14      -7.760996930776e-14       0.000000000000e+00       3.916660742087e-11       4.625273777857e-12      -8.136684563616e-15 
   56       2.113660891298e-10       2.124643445368e-14      -1.107672687602e-13       0.000000000000e+00       3.758335356748e-11       4.463590708467e-12      -8.212079918721e-15 
   57       2.144092505773e-10       2.244348513277e-14      -1.457094595490e-13       0.000000000000e+00       3.608594691683e-11       4.309412462401e-12      -8.164364244645e-15 
   58       2.174784946672e-10       2.367780875020e-14      -1.824374892000e-13       0.000000000000e+00       3.467086430300e-11       4.162719750210e-12      -8.050587534404e-15 
   59       2.205755705493e-10       2.494925838601e-14      -2.209492784102e-13       0.000000000000e+00       3.333187923760e-11       4.023270552233e-12      -7.936952542467e-15 
   60       2.237013658479e-10       2.625763082289e-14      -2.612396592810e-13       0.000000000000e+00       3.205990502998e-11       3.890586364550e-12      -7.899219938943e-15 
   61       2.268563225775e-10       2.760266762320e-14      -3.033012127725e-13       0.000000000000e+00       3.084549877238e-11       3.764110211246e-12      -8.003671275511e-15 
   62       2.300419445478e-10       2.898406170329e-14      -3.471271404570e-13       0.000000000000e+00       2.968738498631e-11       3.643753242734e-12      -8.244087984457e-15 
   63       2.332595117468e-10       3.040144984055e-14      -3.927089306897e-13       0.000000000000e+00       2.858557552125e-11       3.529446978849e-12      -8.591281215845e-15 
   64       2.365095774936e-10       3.185440912284e-14      -4.400354836918e-13       0.000000000000e+00       2.753880649886e-11       3.420974229377e-12      -9.011078240742e-15 
   65       2.397919171909e-10       3.334245567255e-14      -4.890930783164e-13       0.000000000000e+00       2.654446586048e-11       3.317960790019e-12      -9.464110719477e-15 
   66       2.431054770775e-10       3.486504337064e-14      -5.398653388134e-13       0.000000000000e+00       2.559852091463e-11       3.219867138361e-12      -9.905602969898e-15 
   67       2.464483229799e-10       3.642156258067e-14      -5.923332015947e-13       0.000000000000e+00       2.469544588450e-11       3.125980129845e-12      -1.028516023563e-14 
   68       2.498185256189e-10       3.801131229812e-14      -6.464761881272e-13       0.000000000000e+00       2.382968677214e-11       3.035599376883e-12      -1.055794453046e-14 
   69       2.532171393876e-10       3.963341289748e-14      -7.022765974064e-13       0.000000000000e+00       2.300056257770e-11       2.948658802082e-12      -1.072130506463e-14 
   70       2.566457378614e-10       4.128687333199e-14      -7.597161071869e-13       0.000000000000e+00       2.220823160244e-11       2.865216689004e-12      -1.078522384573e-14 
   71       2.601055038436e-10       4.297061422349e-14      -8.187745431857e-13       0.000000000000e+00       2.145220946155e-11       2.785268877095e-12      -1.076166290849e-14 
   72       2.635972020702e-10       4.468346590680e-14      -8.794298792522e-13       0.000000000000e+00       2.073133594923e-11       2.708745436752e-12      -1.066464382538e-14 
   73       2.671211519152e-10       4.642416647406e-14      -9.416582375381e-13       0.000000000000e+00       2.004374190374e-11       2.635507344411e-12      -1.051032721723e-14 
   74       2.706772000953e-10       4.819135981913e-14      -1.005433888667e-12       0.000000000000e+00       1.938681607241e-11       2.565343157615e-12      -1.031709226388e-14 
   75       2.742646933751e-10       4.998359368198e-14      -1.070729251906e-12       0.000000000000e+00       1.875717197675e-11       2.497965690096e-12      -1.010561621472e-14 
   76       2.778828851881e-10       5.179942556506e-14      -1.137514212146e-12       0.000000000000e+00       1.815148260298e-11       2.433085309524e-12      -9.894897728015e-15 
   77       2.815323014387e-10       5.363776710366e-14      -1.205753926674e-12       0.000000000000e+00       1.756923344379e-11       2.370652611697e-12      -9.689313936489e-15 
   78       2.852135753284e-10       5.549759923195e-14      -1.275410616909e-12       0.000000000000e+00       1.701041361995e-11       2.310654164046e-12      -9.489336664412e-15 
   79       2.889270174359e-10       5.737787013419e-14      -1.346444202493e-12       0.000000000000e+00       1.647467750058e-11       2.253038083459e-12      -9.295375610537e-15 
   80       2.926725973195e-10       5.927749550110e-14      -1.418812287446e-12       0.000000000000e+00       1.596132936365e-11       2.197712282569e-12      -9.107774683645e-15 
   81       2.964499251205e-10       6.119535878626e-14      -1.492470146337e-12       0.000000000000e+00       1.546930805650e-11       2.144542716040e-12      -8.926808338075e-15 
   82       3.002582331654e-10       6.313031146245e-14      -1.567370710433e-12       0.000000000000e+00       1.499717165636e-11       2.093351626855e-12      -8.752677909259e-15 
   83       3.040963575694e-10       6.508117327807e-14      -1.643464553871e-12       0.000000000000e+00       1.454308213088e-11       2.043915792603e-12      -8.585507949260e-15 
   84       3.079631859502e-10       6.704668654300e-14      -1.720701409031e-12       0.000000000000e+00       1.410524855353e-11       1.996021439085e-12      -8.425418062742e-15 
   85       3.118591261478e-10       6.902536971731e-14      -1.799035031645e-12       0.000000000000e+00       1.368337477269e-11       1.949643282333e-12      -8.272760124875e-15 
   86       3.157848483896e-10       7.101563990788e-14      -1.878419120600e-12       0.000000000000e+00       1.327742472707e-11       1.904792090624e-12      -8.127913853364e-15 
   87       3.197408304191e-10       7.301585617218e-14      -1.958805872112e-12       0.000000000000e+00       1.288717770880e-11       1.861459866663e-12      -7.991212444273e-15 
   88       3.237273469331e-10       7.502431900207e-14      -2.040145991588e-12       0.000000000000e+00       1.251222073070e-11       1.819619046260e-12      -7.862940176470e-15 
   89       3.277444590179e-10       7.703926980751e-14      -2.122388705488e-12       0.000000000000e+00       1.215194089359e-11       1.779221697012e-12      -7.743330016086e-15 
   90       3.317920035864e-10       7.905889040040e-14      -2.205481773191e-12       0.000000000000e+00       1.180551775368e-11       1.740198716981e-12      -7.632561220955e-15 
   91       3.358695828143e-10       8.108130247827e-14      -2.289371498849e-12       0.000000000000e+00       1.147191568980e-11       1.702459033372e-12      -7.530756945068e-15 
   92       3.399765535769e-10       8.310456710808e-14      -2.374002743255e-12       0.000000000000e+00       1.114987627082e-11       1.665888801212e-12      -7.437981843024e-15 
   93       3.441122610775e-10       8.512675059232e-14      -2.459319021386e-12       0.000000000000e+00       1.083821474142e-11       1.630379675627e-12      -7.354149196906e-15 
   94       3.482768028682e-10       8.714613452042e-14      -2.545262786051e-12       0.000000000000e+00       1.053677706659e-11       1.595920233229e-12      -7.278731521994e-15 
   95       3.524703607419e-10       8.916103650161e-14      -2.631775209032e-12       0.000000000000e+00       1.024561338443e-11       1.562516882922e-12      -7.211001804472e-15 
   96       3.566929596650e-10       9.116974698716e-14      -2.718796112068e-12       0.000000000000e+00       9.964683301134e-12       1.530165620606e-12      -7.150116512071e-15 
   97       3.609444605652e-10       9.317052966538e-14      -2.806263979894e-12       0.000000000000e+00       9.693852432927e-12       1.498851626936e-12      -7.095111956545e-15 
   98       3.652245531209e-10       9.516162185655e-14      -2.894115973276e-12       0.000000000000e+00       9.432888947943e-12       1.468548865093e-12      -7.044900656152e-15 
   99       3.695327485497e-10       9.714123490798e-14      -2.982287942050e-12       0.000000000000e+00       9.181460108153e-12       1.439219678549e-12      -6.998267698134e-15 
  100       3.738683723966e-10       9.910755458893e-14      -3.070714438161e-12       0.000000000000e+00       8.939128811262e-12       1.410814388837e-12      -6.953867101191e-15 
  101       3.782305573230e-10       1.010587414856e-13      -3.159328728701e-12       0.000000000000e+00       8.705350132623e-12       1.383270893320e-12      -6.910218177967e-15 
  102       3.826182358952e-10       1.029929313962e-13      -3.248062808946e-12       0.000000000000e+00       8.479467867137e-12       1.356514262953e-12      -6.865701897522e-15 
  103       3.870301333732e-10       1.049082357259e-13      -3.336847415395e-12       0.000000000000e+00       8.260711071167e-12       1.330456340053e-12      -6.818557247814e-15 
  104       3.914650361193e-10       1.068027798262e-13      -3.425612963236e-12       0.000000000000e+00       8.048367717806e-12       1.305016772631e-12      -6.767272867517e-15 
  105       3.959226536518e-10       1.086748230629e-13      -3.514292474888e-12       0.000000000000e+00       7.842339827081e-12       1.280190219766e-12      -6.711830027166e-15 
  106       4.004028601406e-10       1.105226557790e-13      -3.602819073210e-12       0.000000000000e+00       7.642657227973e-12       1.255987517084e-12      -6.652621556933e-15 
  107       4.049054250531e-10       1.123445636015e-13      -3.691125115318e-12       0.000000000000e+00       7.449305648006e-12       1.232414886232e-12      -6.590072268870e-15 
