# dimensionless total lensed [l(l+1)/2pi] C_l's
# for l=2 to 2500, i.e. number of multipoles equal to 2499
#
# -> if you prefer output in CAMB/HealPix/LensPix units/order, set 'format' to 'camb' in input file
# -> if you don't want to see such a header, set 'headers' to 'no' in input file
# -> for CMB lensing (phi), these are C_l^phi-phi for the lensing potential.
#    Remember the conversion factors:
#    C_l^dd (deflection) = l(l+1) C_l^phi-phi
#    C_l^gg (shear/convergence) = 1/4 (l(l+1))^2 C_l^phi-phi
#
# 1:l     2:TT                     3:EE                     4:TE                     5:BB                     6:phiphi                 7:TPhi                   8:Ephi               
    2       1.367930405899e-10       4.940393640219e-15       3.764234583211e-13       1.917095234974e-19       8.046605891356e-09       4.495903826074e-10      -1.996080408371e-12 
    3       1.295696118805e-10       7.149400284537e-15       4.448303821028e-13       3.835141562823e-19       4.961071052283e-09       3.184293919519e-10      -1.621739008836e-12 
    4       1.225669306283e-10       7.038178153395e-15       4.344082612941e-13       6.393996615425e-19       3.442486128462e-09       2.408380640605e-10      -1.166535561633e-12 
    5       1.172365975933e-10       5.384682253644e-15       3.849335273352e-13       9.594874703701e-19       2.561926222420e-09       1.899907164421e-10      -7.489131067993e-13 
    6       1.135010000460e-10       3.397587662554e-15       3.211114586980e-13       1.343924865057e-18       1.995473766048e-09       1.542865857612e-10      -4.077639624877e-13 
    7       1.110220298623e-10       1.898071803451e-15       2.584979474317e-13       1.792882168530e-18       1.606111947265e-09       1.280329411261e-10      -1.565349033957e-13 
    8       1.095582640727e-10       1.091838718213e-15       2.052212276137e-13       2.306549557138e-18       1.324661554191e-09       1.081335506627e-10       6.524245286239e-15 
    9       1.088589837123e-10       7.814836860007e-16       1.648561491392e-13       2.885133587645e-18       1.113272415350e-09       9.270271335275e-11       9.275682653242e-14 
   10       1.086920551302e-10       6.798234818346e-16       1.380213549946e-13       3.528853536402e-18       9.498596188707e-10       8.046790053850e-11       1.192933131123e-13 
   11       1.089779763878e-10       6.064980800913e-16       1.232847376325e-13       4.237937652530e-18       8.015098313405e-10       7.102650123950e-11       1.056638740244e-13 
   12       1.096159630069e-10       5.188990900260e-16       1.180686918882e-13       5.012619427558e-18       6.991651705708e-10       6.258686296090e-11       7.029522219658e-14 
   13       1.104634192552e-10       4.455585204844e-16       1.195826643083e-13       5.853133981244e-18       6.152316544923e-10       5.579187461002e-11       2.906769854249e-14 
   14       1.115764685261e-10       4.139058496625e-16       1.252400908978e-13       6.759714657428e-18       5.454797760061e-10       5.001536092679e-11      -7.399559899997e-15 
   15       1.128358712843e-10       4.220094873626e-16       1.328622015703e-13       7.732589914935e-18       4.868298845821e-10       4.505003969232e-11      -3.278988088537e-14 
   16       1.142321144556e-10       4.504178927734e-16       1.409708388958e-13       8.771980587076e-18       4.370168267707e-10       4.081765665866e-11      -4.502892834048e-14 
   17       1.157456880883e-10       4.845855129254e-16       1.487927018500e-13       9.878097569609e-18       3.943320748161e-10       3.716399769567e-11      -4.552875075051e-14 
   18       1.173566204309e-10       5.252013336382e-16       1.560843221754e-13       1.105113979867e-17       3.573251044631e-10       3.395948162580e-11      -3.788139908073e-14 
   19       1.190790632389e-10       5.812626688017e-16       1.630043564660e-13       1.229129382719e-17       3.253962841172e-10       3.115423013092e-11      -2.584228763131e-14 
   20       1.208794236729e-10       6.630805078424e-16       1.698615437680e-13       1.359873095786e-17       2.973059521132e-10       2.865070359690e-11      -1.385781694502e-14 
   21       1.227479781264e-10       7.717293723156e-16       1.769843424710e-13       1.497360980360e-17       2.726054238239e-10       2.642673987278e-11      -4.459094693970e-15 
   22       1.246554662266e-10       9.042116882492e-16       1.846764269450e-13       1.641607315511e-17       2.506963116616e-10       2.444870278953e-11       5.883220848302e-16 
   23       1.266185425007e-10       1.058150694918e-15       1.929239610639e-13       1.792625222802e-17       2.312721261007e-10       2.269088790581e-11       1.251967076334e-15 
   24       1.286454040135e-10       1.231206784735e-15       2.015422668592e-13       1.950426347753e-17       2.138786998944e-10       2.110876241699e-11      -1.574942837456e-15 
   25       1.307268749454e-10       1.424062075419e-15       2.102514644863e-13       2.115021490580e-17       1.983074784658e-10       1.968555968168e-11      -6.448798303333e-15 
   26       1.328367035282e-10       1.637898542395e-15       2.186807019777e-13       2.286420212061e-17       1.842726875146e-10       1.839948646296e-11      -1.155774409221e-14 
   27       1.349861837056e-10       1.871703490596e-15       2.264563997451e-13       2.464631459631e-17       1.716030946095e-10       1.723817505287e-11      -1.567409270160e-14 
   28       1.371872360937e-10       2.123977716367e-15       2.332029782624e-13       2.649663313245e-17       1.600774583310e-10       1.618358613062e-11      -1.781787800169e-14 
   29       1.394441737138e-10       2.395834242006e-15       2.387575042580e-13       2.841524059493e-17       1.496349862505e-10       1.522754124079e-11      -1.793597085707e-14 
   30       1.417449994162e-10       2.689433780048e-15       2.430256426776e-13       3.040221342117e-17       1.401615331537e-10       1.435447933320e-11      -1.636726600985e-14 
   31       1.440677511627e-10       3.007139006683e-15       2.459485695233e-13       3.245762210825e-17       1.314614261300e-10       1.354177057039e-11      -1.362147469058e-14 
   32       1.464183050264e-10       3.350788440104e-15       2.475957971578e-13       3.458154568786e-17       1.234884080251e-10       1.278777972000e-11      -1.036455349833e-14 
   33       1.488042515483e-10       3.722174388637e-15       2.481130910285e-13       3.677406279205e-17       1.161849225733e-10       1.209290711052e-11      -7.453969946661e-15 
   34       1.512258799790e-10       4.122960710588e-15       2.476585376608e-13       3.903525063435e-17       1.094473289545e-10       1.145318952635e-11      -5.726566814884e-15 
   35       1.536829672012e-10       4.553714993301e-15       2.462493557169e-13       4.136519385609e-17       1.032401126762e-10       1.086546702739e-11      -5.195829456364e-15 
   36       1.561686012306e-10       5.014517904222e-15       2.438629234419e-13       4.376397937913e-17       9.751238289879e-11       1.032314772644e-11      -5.570412813288e-15 
   37       1.586721533646e-10       5.505404172545e-15       2.404588859304e-13       4.623169474604e-17       9.218835041647e-11       9.817177235833e-12      -6.497887378921e-15 
   38       1.611989879686e-10       6.027064994153e-15       2.359174447315e-13       4.876842899014e-17       8.725364603051e-11       9.345668244046e-12      -7.702197479118e-15 
   39       1.637561421229e-10       6.580365540546e-15       2.300785666588e-13       5.137427278012e-17       8.269211230608e-11       8.906911686241e-12      -8.882364360143e-15 
   40       1.663464204943e-10       7.166155477624e-15       2.227562365517e-13       5.404931874405e-17       7.845957137860e-11       8.496497437331e-12      -9.670230429613e-15 
   41       1.689692232720e-10       7.785226520306e-15       2.137783861200e-13       5.679365879048e-17       7.449907997109e-11       8.108981475033e-12      -9.738036809879e-15 
   42       1.716245370601e-10       8.438171203954e-15       2.031265419925e-13       5.960737397623e-17       7.079853210821e-11       7.744105582710e-12      -9.173417280999e-15 
   43       1.743094149024e-10       9.125476229873e-15       1.908386769986e-13       6.249054207311e-17       6.734770148359e-11       7.402206429272e-12      -8.219375753394e-15 
   44       1.770163743689e-10       9.847555907296e-15       1.769725325722e-13       6.544324061476e-17       6.412096406298e-11       7.082385372916e-12      -7.176428781426e-15 
   45       1.797370820559e-10       1.060478191727e-14       1.615884989346e-13       6.846554097706e-17       6.108634990164e-11       6.783006857701e-12      -6.337987871144e-15 
   46       1.824756667178e-10       1.139759260385e-14       1.446895377921e-13       7.155748799152e-17       5.823880787470e-11       6.503617540910e-12      -5.765296992974e-15 
   47       1.852387033069e-10       1.222640957956e-14       1.262651861951e-13       7.471911461052e-17       5.557480524070e-11       6.243423149392e-12      -5.451109800904e-15 
   48       1.880313106808e-10       1.309160482648e-14       1.063082846835e-13       7.795044738689e-17       5.308230111372e-11       6.000667424192e-12      -5.381492962097e-15 
   49       1.908569854393e-10       1.399349865573e-14       8.481503694176e-14       8.125150633984e-17       5.074011510193e-11       5.772562341364e-12      -5.535373220669e-15 
   50       1.937175683534e-10       1.493235793997e-14       6.177811245940e-14       8.462229991308e-17       4.852425639249e-11       5.556049938343e-12      -5.880836076416e-15 
   51       1.966135184052e-10       1.590839497925e-14       3.716360896950e-14       8.806280854652e-17       4.643040107197e-11       5.350493465231e-12      -6.363888210215e-15 
   52       1.995434259108e-10       1.692176480016e-14       1.092793984085e-14       9.157299641366e-17       4.445642467344e-11       5.155596098497e-12      -6.915861817996e-15 
   53       2.025037303016e-10       1.797256287636e-14      -1.697601685266e-14       9.515281558341e-17       4.259567837729e-11       4.970603262337e-12      -7.455804966842e-15 
   54       2.054885602017e-10       1.906082310093e-14      -4.659918606567e-14       9.880220565513e-17       4.083668520015e-11       4.794271983857e-12      -7.889875793577e-15 
   55       2.084919699143e-10       2.018653298050e-14      -7.798810507938e-14       1.025210964418e-16       3.916660742087e-11       4.625273777857e-12      -8.136684563616e-15 
   56       2.115156658663e-10       2.134968828310e-14      -1.111573552926e-13       1.063094176360e-16       3.758335356748e-11       4.463590708467e-12      -8.212079918721e-15 
   57       2.145629194608e-10       2.255024841437e-14      -1.461107508522e-13       1.101670909062e-16       3.608594691683e-11       4.309412462401e-12      -8.164364244645e-15 
   58       2.176362737273e-10       2.378811905805e-14      -1.828491365913e-13       1.140940268174e-16       3.467086430300e-11       4.162719750210e-12      -8.050587534404e-15 
   59       2.207374767654e-10       2.506315081931e-14      -2.213703262135e-13       1.180901245859e-16       3.333187923760e-11       4.023270552233e-12      -7.936952542467e-15 
   60       2.238674151881e-10       2.637513786801e-14      -2.616690404769e-13       1.221552718321e-16       3.205990502998e-11       3.890586364550e-12      -7.899219938943e-15 
   61       2.270265296908e-10       2.772381914784e-14      -3.037377469141e-13       1.262893586910e-16       3.084549877238e-11       3.764110211246e-12      -8.003671275511e-15 
   62       2.302163213280e-10       2.910888538991e-14      -3.475695390927e-13       1.304923243983e-16       2.968738498631e-11       3.643753242734e-12      -8.244087984457e-15 
   63       2.334380667701e-10       3.052997127310e-14      -3.931557968833e-13       1.347641207713e-16       2.858557552125e-11       3.529446978849e-12      -8.591281215845e-15 
   64       2.366923157692e-10       3.198665174726e-14      -4.404853094001e-13       1.391046989815e-16       2.753880649886e-11       3.420974229377e-12      -9.011078240742e-15 
   65       2.399788399001e-10       3.347844075786e-14      -4.895442417901e-13       1.435140097631e-16       2.654446586048e-11       3.317960790019e-12      -9.464110719477e-15 
   66       2.432965813021e-10       3.500478997080e-14      -5.403161020221e-13       1.479920036228e-16       2.559852091463e-11       3.219867138361e-12      -9.905602969898e-15 
   67       2.466436014195e-10       3.656508749709e-14      -5.927817076763e-13       1.525386310491e-16       2.469544588450e-11       3.125980129845e-12      -1.028516023563e-14 
   68       2.500179664205e-10       3.815863022177e-14      -6.469204587124e-13       1.571538581509e-16       2.382968677214e-11       3.035599376883e-12      -1.055794453046e-14 
   69       2.534207263642e-10       3.978453713058e-14      -7.027145294878e-13       1.618377167862e-16       2.300056257770e-11       2.948658802082e-12      -1.072130506463e-14 
   70       2.568534503814e-10       4.144181604931e-14      -7.601454703938e-13       1.665902650134e-16       2.220823160244e-11       2.865216689004e-12      -1.078522384573e-14 
   71       2.603173165951e-10       4.312938657037e-14      -8.191929772194e-13       1.714115731537e-16       2.145220946155e-11       2.785268877095e-12      -1.076166290849e-14 
   72       2.638130848172e-10       4.484607810241e-14      -8.798348913409e-13       1.763017243951e-16       2.073133594923e-11       2.708745436752e-12      -1.066464382538e-14 
   73       2.673410692462e-10       4.659062791993e-14      -9.420471999124e-13       1.812608153960e-16       2.004374190374e-11       2.635507344411e-12      -1.051032721723e-14 
   74       2.709011111639e-10       4.836167921300e-14      -1.005804036056e-12       1.862889568892e-16       1.938681607241e-11       2.565343157615e-12      -1.031709226388e-14 
   75       2.744925516327e-10       5.015777913681e-14      -1.071077679052e-12       1.913862742859e-16       1.875717197675e-11       2.497965690096e-12      -1.010561621472e-14 
   76       2.781146386731e-10       5.197748468326e-14      -1.137837871253e-12       1.965529065659e-16       1.815148260298e-11       2.433085309524e-12      -9.894897728015e-15 
   77       2.817678948725e-10       5.381970689557e-14      -1.206049624599e-12       2.017890013797e-16       1.756923344379e-11       2.370652611697e-12      -9.689313936489e-15 
   78       2.854529507210e-10       5.568342617106e-14      -1.275675012597e-12       2.070947201463e-16       1.701041361995e-11       2.310654164046e-12      -9.489336664412e-15 
   79       2.891701141599e-10       5.756759026416e-14      -1.346673804515e-12       2.124702402469e-16       1.647467750058e-11       2.253038083459e-12      -9.295375610537e-15 
   80       2.929193521875e-10       5.947111454709e-14      -1.419003451559e-12       2.179157555942e-16       1.596132936365e-11       2.197712282569e-12      -9.107774683645e-15 
   81       2.967002724661e-10       6.139288227042e-14      -1.492619073057e-12       2.234314772007e-16       1.546930805650e-11       2.144542716040e-12      -8.926808338075e-15 
   82       3.005121049279e-10       6.333174482373e-14      -1.567473442633e-12       2.290176337477e-16       1.499717165636e-11       2.093351626855e-12      -8.752677909259e-15 
   83       3.043536833821e-10       6.528652199620e-14      -1.643516974389e-12       2.346744721540e-16       1.454308213088e-11       2.043915792603e-12      -8.585507949260e-15 
   84       3.082238931695e-10       6.725595609252e-14      -1.720699243260e-12       2.404022459836e-16       1.410524855353e-11       1.996021439085e-12      -8.425418062742e-15 
   85       3.121231396853e-10       6.923856496989e-14      -1.798973865953e-12       2.462011772143e-16       1.368337477269e-11       1.949643282333e-12      -8.272760124875e-15 
   86       3.160520907150e-10       7.123276500222e-14      -1.878294407586e-12       2.520714891449e-16       1.327742472707e-11       1.904792090624e-12      -8.127913853364e-15 
   87       3.200112216258e-10       7.323691455134e-14      -1.958612931245e-12       2.580134183509e-16       1.288717770880e-11       1.861459866663e-12      -7.991212444273e-15 
   88       3.240008048058e-10       7.524931345208e-14      -2.039880009940e-12       2.640272150497e-16       1.251222073070e-11       1.819619046260e-12      -7.862940176470e-15 
   89       3.280208991037e-10       7.726820249732e-14      -2.122044738577e-12       2.701131434645e-16       1.215194089359e-11       1.779221697012e-12      -7.743330016086e-15 
   90       3.320713392674e-10       7.929176292312e-14      -2.205054745916e-12       2.762714821889e-16       1.180551775368e-11       1.740198716981e-12      -7.632561220955e-15 
   91       3.361517253835e-10       8.131811589374e-14      -2.288856206534e-12       2.825025245510e-16       1.147191568980e-11       1.702459033372e-12      -7.530756945068e-15 
   92       3.402614123168e-10       8.334532198676e-14      -2.373393852795e-12       2.888065789783e-16       1.114987627082e-11       1.665888801212e-12      -7.437981843024e-15 
   93       3.443997427450e-10       8.537144741903e-14      -2.458611077239e-12       2.951839724594e-16       1.083821474142e-11       1.630379675627e-12      -7.354149196906e-15 
   94       3.485668092950e-10       8.739477523678e-14      -2.544450231401e-12       3.016350607364e-16       1.053677706659e-11       1.595920233229e-12      -7.278731521994e-15 
   95       3.527627880398e-10       8.941362508425e-14      -2.630852394266e-12       3.081602203261e-16       1.024561338443e-11       1.562516882922e-12      -7.211001804472e-15 
   96       3.569876979954e-10       9.142628968883e-14      -2.717757298869e-12       3.147598459608e-16       9.964683301134e-12       1.530165620606e-12      -7.150116512071e-15 
   97       3.612413939038e-10       9.343103526223e-14      -2.805103345498e-12       3.214343509947e-16       9.693852432927e-12       1.498851626936e-12      -7.095111956545e-15 
   98       3.655235590162e-10       9.542610190174e-14      -2.892827614903e-12       3.281841678106e-16       9.432888947943e-12       1.468548865093e-12      -7.044900656152e-15 
   99       3.698336978760e-10       9.740970399144e-14      -2.980865881495e-12       3.350097482276e-16       9.181460108153e-12       1.439219678549e-12      -6.998267698134e-15 
  100       3.741711291016e-10       9.938003060340e-14      -3.069152626557e-12       3.419115639071e-16       8.939128811262e-12       1.410814388837e-12      -6.953867101191e-15 
  101       3.785349781697e-10       1.013352458989e-13      -3.157621051445e-12       3.488901067604e-16       8.705350132623e-12       1.383270893320e-12      -6.910218177967e-15 
  102       3.829241701980e-10       1.032734895297e-13      -3.246203090794e-12       3.559458893551e-16       8.479467867137e-12       1.356514262953e-12      -6.865701897522e-15 
  103       3.873374227286e-10       1.051928770392e-13      -3.334829425725e-12       3.630794453223e-16       8.260711071167e-12       1.330456340053e-12      -6.818557247814e-15 
  104       3.917735148839e-10       1.070915383272e-13      -3.423430418976e-12       3.702913283622e-16       8.048367717806e-12       1.305016772631e-12      -6.767272867517e-15 
  105       3.962321517881e-10       1.089677380984e-13      -3.511939035741e-12       3.775821082317e-16       7.842339827081e-12       1.280190219766e-12      -6.711830027166e-15 
  106       4.007132040058e-10       1.108197725084e-13      -3.600288343850e-12       3.849523749711e-16       7.642657227973e-12       1.255987517084e-12      -6.652621556933e-15 
  107       4.052164374663e-10       1.126459333627e-13      -3.688410650126e-12       3.924027406432e-16       7.449305648006e-12       1.232414886232e-12      -6.590072268870e-15 
