# Matter power spectrum P(k) at redshift z=5
# for k=1.04575e-05 to 1006.15 h/Mpc,
# number of wavenumbers equal to 625
#    1:k (h/Mpc)              2:P (Mpc/h)^3        
       1.045749810485e-05       2.003153664862e+00 
       2.373043761528e-05       4.484911796078e+00 
       3.705205197341e-05       6.947631019932e+00 
       5.046040160262e-05       9.407971088614e+00 
       6.399420676399e-05       1.187728976650e+01 
       7.769321405898e-05       1.436518071701e+01 
       9.159857522556e-05       1.688053551975e+01 
       1.057532435558e-04       1.943201447053e+01 
       1.202023933008e-04       2.202831358882e+01 
       1.349938674647e-04       2.467834695979e+01 
       1.501786593808e-04       2.739139010014e+01 
       1.658114333596e-04       3.017720572317e+01 
       1.819510894196e-04       3.304616168601e+01 
       1.986613765579e-04       3.600934770944e+01 
       2.160115580438e-04       3.907869357821e+01 
       2.340771306401e-04       4.226709045195e+01 
       2.529405972213e-04       4.558851597492e+01 
       2.726922886571e-04       4.905816286053e+01 
       2.934312256600e-04       5.269256831094e+01 
       3.152660040981e-04       5.650974132495e+01 
       3.383156775180e-04       6.052928260374e+01 
       3.627105977775e-04       6.477248886408e+01 
       3.885931583209e-04       6.926243080044e+01 
       4.161183645581e-04       7.402399077150e+01 
       4.454541324261e-04       7.908384100897e+01 
       4.767811907995e-04       8.447034117365e+01 
       5.102924387431e-04       9.021332692774e+01 
       5.461915893473e-04       9.634376274243e+01 
       5.846909251320e-04       1.028932290770e+02 
       6.260080050474e-04       1.098932218559e+02 
       6.703612104985e-04       1.173742488994e+02 
       7.179641068864e-04       1.253647314513e+02 
       7.690187318622e-04       1.338897407522e+02 
       8.237080952403e-04       1.429696379687e+02 
       8.821883665213e-04       1.526187130890e+02 
       9.445813962622e-04       1.628439516999e+02 
       1.010968318642e-03       1.736440730087e+02 
       1.081384969221e-03       1.850089650666e+02 
       1.155819700313e-03       1.969196133083e+02 
       1.234213899658e-03       2.093485584009e+02 
       1.316465168833e-03       2.222608423480e+02 
       1.402432774394e-03       2.356153458322e+02 
       1.491944724558e-03       2.493663763846e+02 
       1.584805697329e-03       2.634653309203e+02 
       1.680805061300e-03       2.778622895678e+02 
       1.779724358910e-03       2.925074390007e+02 
       1.881343813733e-03       3.073522330107e+02 
       1.985447627100e-03       3.223502695013e+02 
       2.091828006459e-03       3.374579102235e+02 
       2.200287998256e-03       3.526346493711e+02 
       2.310643277916e-03       3.678428154805e+02 
       2.422723085604e-03       3.830489935930e+02 
       2.536370500476e-03       3.982227345041e+02 
       2.651442230081e-03       4.133367037531e+02 
       2.767808065318e-03       4.283665443157e+02 
       2.885350122018e-03       4.432907768645e+02 
       3.003961962113e-03       4.580904609965e+02 
       3.123547662764e-03       4.727491048659e+02 
       3.244020881646e-03       4.872523771590e+02 
       3.365303950641e-03       5.015879072020e+02 
       3.487327018288e-03       5.157450890185e+02 
       3.610027252458e-03       5.297148708406e+02 
       3.733348108622e-03       5.434896725669e+02 
       3.857238664757e-03       5.570630375623e+02 
       3.981653021215e-03       5.704296181347e+02 
       4.106549762154e-03       5.835851168235e+02 
       4.231891474164e-03       5.965259123515e+02 
       4.357644317282e-03       6.092493908879e+02 
       4.483777643502e-03       6.217533519199e+02 
       4.610263657980e-03       6.340364734192e+02 
       4.737077118433e-03       6.460977224888e+02 
       4.864195068510e-03       6.579367060277e+02 
       4.991596601329e-03       6.695534988340e+02 
       5.119262649698e-03       6.809483131114e+02 
       5.247175799933e-03       6.921220128202e+02 
       5.375320126495e-03       7.030753778180e+02 
       5.503681045008e-03       7.138096617700e+02 
       5.632245181484e-03       7.243264511048e+02 
       5.761000255846e-03       7.346271837191e+02 
       5.889934978076e-03       7.447136423417e+02 
       6.019038955502e-03       7.545877136112e+02 
       6.148302609931e-03       7.642513250934e+02 
       6.277717103485e-03       7.737066943045e+02 
       6.407274272154e-03       7.829561613742e+02 
       6.536966566162e-03       7.920016456747e+02 
       6.666786996400e-03       8.008456988215e+02 
       6.796729086234e-03       8.094905492258e+02 
       6.926786828089e-03       8.179386553051e+02 
       7.056954644300e-03       8.261926694327e+02 
       7.187227351743e-03       8.342549086374e+02 
       7.317600129859e-03       8.421277335246e+02 
       7.448068491705e-03       8.498136740756e+02 
       7.578628257697e-03       8.573152957334e+02 
       7.709275531791e-03       8.646346727381e+02 
       7.840006679834e-03       8.717748584420e+02 
       7.970818309857e-03       8.787380176247e+02 
       8.101707254141e-03       8.855262285831e+02 
       8.232670552846e-03       8.921424332497e+02 
       8.363705439076e-03       8.985889369561e+02 
       8.494809325229e-03       9.048675208236e+02 
       8.625979790500e-03       9.109810703222e+02 
       8.757214569446e-03       9.169319045957e+02 
       8.888511541496e-03       9.227222253462e+02 
       9.019868721331e-03       9.283541475848e+02 
       9.151284250039e-03       9.338302465914e+02 
       9.282756386994e-03       9.391524278194e+02 
       9.414283502372e-03       9.443231128201e+02 
       9.545864070270e-03       9.493442342453e+02 
       9.677496662351e-03       9.542180556761e+02 
       9.809179941995e-03       9.589467795335e+02 
       9.940912658886e-03       9.635321577165e+02 
       1.007269364402e-02       9.679764750360e+02 
       1.020452180510e-02       9.722817692838e+02 
       1.033639612222e-02       9.764498409781e+02 
       1.046831564399e-02       9.804830109561e+02 
       1.060027948378e-02       9.843825118466e+02 
       1.073228681639e-02       9.881508510819e+02 
       1.086433687490e-02       9.917915243831e+02 
       1.099642894770e-02       9.953030283314e+02 
       1.112856237583e-02       9.986888132055e+02 
       1.126073655044e-02       1.001950344918e+03 
       1.139295091047e-02       1.005089998413e+03 
       1.152520494046e-02       1.008108950151e+03 
       1.165749816853e-02       1.011008741232e+03 
       1.178983016452e-02       1.013792029295e+03 
       1.192220053825e-02       1.016459457731e+03 
       1.205460893787e-02       1.019012977430e+03 
       1.218705504840e-02       1.021454556279e+03 
       1.231953859028e-02       1.023785876158e+03 
       1.245205931810e-02       1.026007241801e+03 
       1.258461701939e-02       1.028121909141e+03 
       1.271721151347e-02       1.030130379264e+03 
       1.284984265044e-02       1.032034429490e+03 
       1.298251031021e-02       1.033834982077e+03 
       1.311521440158e-02       1.035534752065e+03 
       1.324795486143e-02       1.037134432650e+03 
       1.338073165393e-02       1.038635262901e+03 
       1.351354476986e-02       1.040039277395e+03 
       1.364639422595e-02       1.041347529209e+03 
       1.377928006424e-02       1.042561260715e+03 
       1.391220235156e-02       1.043682010721e+03 
       1.404516117903e-02       1.044711325226e+03 
       1.417815666155e-02       1.045650671264e+03 
       1.431118893742e-02       1.046500451797e+03 
       1.444425816794e-02       1.047263364808e+03 
       1.457736453706e-02       1.047939323677e+03 
       1.471050825103e-02       1.048530504822e+03 
       1.484368953822e-02       1.049037515733e+03 
       1.497690864875e-02       1.049462249331e+03 
       1.511016585436e-02       1.049805214391e+03 
       1.524346144820e-02       1.050068521410e+03 
       1.537679574464e-02       1.050252837377e+03 
       1.551016907917e-02       1.050359390570e+03 
       1.564358180828e-02       1.050389680517e+03 
       1.577703430938e-02       1.050344466629e+03 
       1.591052698073e-02       1.050225206898e+03 
       1.604406024142e-02       1.050033043405e+03 
       1.617763453133e-02       1.049769104043e+03 
       1.631125031118e-02       1.049434248611e+03 
       1.644490806251e-02       1.049029885316e+03 
       1.657860828775e-02       1.048557146325e+03 
       1.671235151029e-02       1.048017106673e+03 
       1.684613827459e-02       1.047410884450e+03 
       1.697996914622e-02       1.046738647431e+03 
       1.711384471207e-02       1.046002345927e+03 
       1.724776558040e-02       1.045203866223e+03 
       1.738173238109e-02       1.044343420446e+03 
       1.751574576578e-02       1.043421022548e+03 
       1.764980640804e-02       1.042438818191e+03 
       1.778391500363e-02       1.041397684328e+03 
       1.791807227070e-02       1.040298746238e+03 
       1.805227895006e-02       1.039142441033e+03 
       1.818653580541e-02       1.037930465860e+03 
       1.832084362365e-02       1.036662990373e+03 
       1.845520321520e-02       1.035341555418e+03 
       1.858961541424e-02       1.033966470995e+03 
       1.872408107911e-02       1.032539601600e+03 
       1.885860109264e-02       1.031061479521e+03 
       1.899317636251e-02       1.029531976940e+03 
       1.912780782161e-02       1.027953682901e+03 
       1.926249642850e-02       1.026325631977e+03 
       1.939724316775e-02       1.024651828058e+03 
       1.953204905044e-02       1.022928212792e+03 
       1.966691511458e-02       1.021161654063e+03 
       1.980184242558e-02       1.019347810776e+03 
       1.993683207674e-02       1.017490453342e+03 
       2.007188518977e-02       1.015589892951e+03 
       2.020700291530e-02       1.013645065752e+03 
       2.034218643342e-02       1.011658876003e+03 
       2.047743695426e-02       1.009632161659e+03 
       2.061275571856e-02       1.007565083934e+03 
       2.074814399829e-02       1.005458208739e+03 
       2.088360309724e-02       1.003312480993e+03 
       2.101913435170e-02       1.001128673442e+03 
       2.115473913110e-02       9.989074707152e+02 
       2.129041883873e-02       9.966518495445e+02 
       2.142617491241e-02       9.943584252661e+02 
       2.156200882525e-02       9.920312697227e+02 
       2.169792208640e-02       9.896694642567e+02 
       2.183391624183e-02       9.872740556585e+02 
       2.196999287514e-02       9.848466244387e+02 
       2.210615360838e-02       9.823854555535e+02 
       2.224240010293e-02       9.798952978396e+02 
       2.237873406036e-02       9.773723458741e+02 
       2.251515722336e-02       9.748200368650e+02 
       2.265167137665e-02       9.722406585129e+02 
       2.278827834800e-02       9.696306574129e+02 
       2.292498000920e-02       9.669926677559e+02 
       2.306177827707e-02       9.643287718912e+02 
       2.319867511457e-02       9.616371308804e+02 
       2.333567253186e-02       9.589206646877e+02 
       2.347277258747e-02       9.561778046953e+02 
       2.360997738941e-02       9.534116205107e+02 
       2.374728909641e-02       9.506205613555e+02 
       2.388470991917e-02       9.478081535272e+02 
       2.402224212160e-02       9.449721967456e+02 
       2.415988802217e-02       9.421138407805e+02 
       2.429764999526e-02       9.392324976414e+02 
       2.443553047256e-02       9.363323122969e+02 
       2.457353194453e-02       9.334129126194e+02 
       2.471165696187e-02       9.304724805228e+02 
       2.484990813710e-02       9.275130566594e+02 
       2.498828814611e-02       9.245360515324e+02 
       2.512679972984e-02       9.215395453729e+02 
       2.526544569592e-02       9.185270041090e+02 
       2.540422892050e-02       9.154983642528e+02 
       2.554315234997e-02       9.124524421238e+02 
       2.568221900292e-02       9.093904133536e+02 
       2.582143197196e-02       9.063128393582e+02 
       2.596079442580e-02       9.032215338187e+02 
       2.610030961129e-02       9.001165749146e+02 
       2.623998085549e-02       8.969996771688e+02 
       2.637981156794e-02       8.938665663900e+02 
       2.651980524290e-02       8.907226785713e+02 
       2.665996546168e-02       8.875653009542e+02 
       2.680029589511e-02       8.843980622867e+02 
       2.694080030602e-02       8.812177154429e+02 
       2.708148255186e-02       8.780285739844e+02 
       2.722234658737e-02       8.748292242860e+02 
       2.736339646738e-02       8.716186039662e+02 
       2.750463634970e-02       8.683978278209e+02 
       2.764607049807e-02       8.651713165765e+02 
       2.778770328530e-02       8.619330944013e+02 
       2.792953919641e-02       8.586912134564e+02 
       2.807158283200e-02       8.554380533096e+02 
       2.821383891169e-02       8.521774773945e+02 
       2.835631227763e-02       8.489106613184e+02 
       2.849900789825e-02       8.456382089907e+02 
       2.864193087208e-02       8.423608922745e+02 
       2.878508643170e-02       8.390745666789e+02 
       2.892847994792e-02       8.357855784767e+02 
       2.907211693401e-02       8.324892440645e+02 
       2.921600305018e-02       8.291936081759e+02 
       2.936014410820e-02       8.258880579119e+02 
       2.950454607619e-02       8.225808915617e+02 
       2.964921508358e-02       8.192694729183e+02 
       2.979415742637e-02       8.159569225575e+02 
       2.993937957245e-02       8.126395008469e+02 
       3.008488816723e-02       8.093195795242e+02 
       3.023069003948e-02       8.059974563240e+02 
       3.037679220740e-02       8.026731639612e+02 
       3.052320188494e-02       7.993470747770e+02 
       3.066992648838e-02       7.960205090815e+02 
       3.081697364318e-02       7.926939174153e+02 
       3.096435119115e-02       7.893622052110e+02 
       3.111206719787e-02       7.860317157243e+02 
       3.126012996051e-02       7.827021477043e+02 
       3.140854801586e-02       7.793744605452e+02 
       3.155733014887e-02       7.760438564555e+02 
       3.170648540141e-02       7.727140288370e+02 
       3.185602308155e-02       7.693853292321e+02 
       3.200595277315e-02       7.660600035962e+02 
       3.215628434598e-02       7.627324295325e+02 
       3.230702796621e-02       7.594080033975e+02 
       3.245819410741e-02       7.560849444142e+02 
       3.260979356215e-02       7.527609928241e+02 
       3.276183745398e-02       7.494418551741e+02 
       3.291433725013e-02       7.461253718416e+02 
       3.306730477471e-02       7.428097405994e+02 
       3.322075222260e-02       7.394945569160e+02 
       3.337469217403e-02       7.361855364955e+02 
       3.352913760980e-02       7.328807965703e+02 
       3.368410192736e-02       7.295756355858e+02 
       3.383959895760e-02       7.262748903537e+02 
       3.399564298254e-02       7.229776031939e+02 
       3.415224875396e-02       7.196828416377e+02 
       3.430943151287e-02       7.163939979795e+02 
       3.446720701016e-02       7.131050904890e+02 
       3.462559152820e-02       7.098239978053e+02 
       3.478460190367e-02       7.065445752778e+02 
       3.494425555159e-02       7.032705238534e+02 
       3.510457049068e-02       6.999990455741e+02 
       3.526556537007e-02       6.967356607969e+02 
       3.542725949757e-02       6.934734106883e+02 
       3.558967286947e-02       6.902160845238e+02 
       3.575282620204e-02       6.869623335324e+02 
       3.591674096486e-02       6.837144834570e+02 
       3.608143941613e-02       6.804716106190e+02 
       3.624694463996e-02       6.772330521337e+02 
       3.641328058594e-02       6.740007536203e+02 
       3.658047211114e-02       6.707720203566e+02 
       3.674854502456e-02       6.675492343529e+02 
       3.691752613441e-02       6.643294195059e+02 
       3.708744329831e-02       6.611151254531e+02 
       3.725832547669e-02       6.579055726477e+02 
       3.743020278953e-02       6.547015325222e+02 
       3.760310657689e-02       6.515018034381e+02 
       3.777706946333e-02       6.483101813459e+02 
       3.795212542663e-02       6.451191995847e+02 
       3.812830987117e-02       6.419347591757e+02 
       3.830565970624e-02       6.387551064374e+02 
       3.848421342989e-02       6.355822103175e+02 
       3.866401121852e-02       6.324123475442e+02 
       3.884509502293e-02       6.292456469183e+02 
       3.902750867120e-02       6.260869387347e+02 
       3.921129797920e-02       6.229317771630e+02 
       3.939651086917e-02       6.197790493753e+02 
       3.958319749728e-02       6.166312658291e+02 
       3.977141039084e-02       6.134893666078e+02 
       3.996120459624e-02       6.103512997115e+02 
       4.015263783837e-02       6.072171021397e+02 
       4.034577069283e-02       6.040853587149e+02 
       4.054066677207e-02       6.009591336510e+02 
       4.073739292676e-02       5.978345503687e+02 
       4.093601946408e-02       5.947147521810e+02 
       4.113662038441e-02       5.915998718041e+02 
       4.133927363850e-02       5.884868496068e+02 
       4.154406140720e-02       5.853744184385e+02 
       4.175107040600e-02       5.822726677478e+02 
       4.196039221729e-02       5.791613637152e+02 
       4.217212365321e-02       5.760581878118e+02 
       4.238636715250e-02       5.729560476108e+02 
       4.260323121533e-02       5.698537797432e+02 
       4.282283088035e-02       5.667571188400e+02 
       4.304528824899e-02       5.636564805114e+02 
       4.327073306268e-02       5.605598802581e+02 
       4.349930333937e-02       5.574638742229e+02 
       4.373114607684e-02       5.543648691466e+02 
       4.396641803108e-02       5.512665989603e+02 
       4.420528657961e-02       5.481676196272e+02 
       4.444793068082e-02       5.450663864685e+02 
       4.469454194227e-02       5.419632580336e+02 
       4.494532581288e-02       5.388563276367e+02 
       4.520050291638e-02       5.357484896887e+02 
       4.546031054620e-02       5.326345320651e+02 
       4.572500434546e-02       5.295166163524e+02 
       4.599486019958e-02       5.263918904296e+02 
       4.627017637418e-02       5.232616442701e+02 
       4.655127593643e-02       5.201247102748e+02 
       4.683850950528e-02       5.169811231729e+02 
       4.713225838436e-02       5.138265424816e+02 
       4.743293814168e-02       5.106624058376e+02 
       4.774100271297e-02       5.074869767123e+02 
       4.805694912064e-02       5.042984371265e+02 
       4.838132291952e-02       5.010967632945e+02 
       4.871472450393e-02       4.978807881595e+02 
       4.905781643925e-02       4.946442898999e+02 
       4.941133201783e-02       4.913910203648e+02 
       4.977608528353e-02       4.881157636231e+02 
       5.015298282618e-02       4.848178321101e+02 
       5.054303771845e-02       4.814927432198e+02 
       5.094738605757e-02       4.781385267795e+02 
       5.136730668884e-02       4.747535127156e+02 
       5.180424483333e-02       4.713333097258e+02 
       5.225984052739e-02       4.678718549917e+02 
       5.273596301788e-02       4.643669893883e+02 
       5.323475255774e-02       4.608107434480e+02 
       5.375867142783e-02       4.571976021069e+02 
       5.431056648953e-02       4.535191857148e+02 
       5.489374616450e-02       4.497675335889e+02 
       5.551207544878e-02       4.459317715837e+02 
       5.617009337762e-02       4.419969790837e+02 
       5.687315818582e-02       4.379467327986e+02 
       5.762762604582e-02       4.337593200933e+02 
       5.844106924229e-02       4.294093800294e+02 
       5.932253797381e-02       4.248615334387e+02 
       6.028286471725e-02       4.200705710083e+02 
       6.133499760901e-02       4.149773340976e+02 
       6.249432323971e-02       4.095029685668e+02 
       6.377888977286e-02       4.035426287153e+02 
       6.520935658723e-02       3.969556287271e+02 
