# Matter power spectrum P(k) at redshift z=3.5
# for k=1.04575e-05 to 1006.15 h/Mpc,
# number of wavenumbers equal to 625
#    1:k (h/Mpc)              2:P (Mpc/h)^3        
       1.045749810485e-05       3.549464795979e+00 
       2.373043761528e-05       7.946981886542e+00 
       3.705205197341e-05       1.231075074270e+01 
       5.046040160262e-05       1.667028435616e+01 
       6.399420676399e-05       2.104570044057e+01 
       7.769321405898e-05       2.545399016217e+01 
       9.159857522556e-05       2.991089992799e+01 
       1.057532435558e-04       3.443176498852e+01 
       1.202023933008e-04       3.903198269012e+01 
       1.349938674647e-04       4.372733481863e+01 
       1.501786593808e-04       4.853424155667e+01 
       1.658114333596e-04       5.346998347731e+01 
       1.819510894196e-04       5.855291032450e+01 
       1.986613765579e-04       6.380264693266e+01 
       2.160115580438e-04       6.924030165076e+01 
       2.340771306401e-04       7.488868045062e+01 
       2.529405972213e-04       8.077250734982e+01 
       2.726922886571e-04       8.691865049475e+01 
       2.934312256600e-04       9.335634973309e+01 
       3.152660040981e-04       1.001174399233e+02 
       3.383156775180e-04       1.072365606566e+02 
       3.627105977775e-04       1.147513377927e+02 
       3.885931583209e-04       1.227025181402e+02 
       4.161183645581e-04       1.311340317347e+02 
       4.454541324261e-04       1.400929488442e+02 
       4.767811907995e-04       1.496292928380e+02 
       5.102924387431e-04       1.597956612034e+02 
       5.461915893473e-04       1.706466052923e+02 
       5.846909251320e-04       1.822377192230e+02 
       6.260080050474e-04       1.946243970063e+02 
       6.703612104985e-04       2.078602356177e+02 
       7.179641068864e-04       2.219950967992e+02 
       7.690187318622e-04       2.370728857952e+02 
       8.237080952403e-04       2.531291655953e+02 
       8.821883665213e-04       2.701887817702e+02 
       9.445813962622e-04       2.882637190329e+02 
       1.010968318642e-03       3.073514459510e+02 
       1.081384969221e-03       3.274339604137e+02 
       1.155819700313e-03       3.484777003248e+02 
       1.234213899658e-03       3.704343725675e+02 
       1.316465168833e-03       3.932426201736e+02 
       1.402432774394e-03       4.168303518275e+02 
       1.491944724558e-03       4.411174849727e+02 
       1.584805697329e-03       4.660188016065e+02 
       1.680805061300e-03       4.914466749567e+02 
       1.779724358910e-03       5.173135051513e+02 
       1.881343813733e-03       5.435337174832e+02 
       1.985447627100e-03       5.700252961496e+02 
       2.091828006459e-03       5.967109048718e+02 
       2.200287998256e-03       6.235185960095e+02 
       2.310643277916e-03       6.503813653903e+02 
       2.422723085604e-03       6.772397483927e+02 
       2.536370500476e-03       7.040396098179e+02 
       2.651442230081e-03       7.307324565789e+02 
       2.767808065318e-03       7.572751663050e+02 
       2.885350122018e-03       7.836298684707e+02 
       3.003961962113e-03       8.097632260853e+02 
       3.123547662764e-03       8.356462611134e+02 
       3.244020881646e-03       8.612537910724e+02 
       3.365303950641e-03       8.865640444877e+02 
       3.487327018288e-03       9.115583024704e+02 
       3.610027252458e-03       9.362205349261e+02 
       3.733348108622e-03       9.605372793868e+02 
       3.857238664757e-03       9.844970527399e+02 
       3.981653021215e-03       1.008090357392e+03 
       4.106549762154e-03       1.031309588693e+03 
       4.231891474164e-03       1.054148385097e+03 
       4.357644317282e-03       1.076602203293e+03 
       4.483777643502e-03       1.098667254909e+03 
       4.610263657980e-03       1.120341308537e+03 
       4.737077118433e-03       1.141622632781e+03 
       4.864195068510e-03       1.162510604935e+03 
       4.991596601329e-03       1.183005408637e+03 
       5.119262649698e-03       1.203107446613e+03 
       5.247175799933e-03       1.222818266788e+03 
       5.375320126495e-03       1.242139265907e+03 
       5.503681045008e-03       1.261072684603e+03 
       5.632245181484e-03       1.279621362345e+03 
       5.761000255846e-03       1.297787885849e+03 
       5.889934978076e-03       1.315575454827e+03 
       6.019038955502e-03       1.332987453376e+03 
       6.148302609931e-03       1.350027339599e+03 
       6.277717103485e-03       1.366699075149e+03 
       6.407274272154e-03       1.383006783872e+03 
       6.536966566162e-03       1.398953883450e+03 
       6.666786996400e-03       1.414544862213e+03 
       6.796729086234e-03       1.429783756650e+03 
       6.926786828089e-03       1.444674840764e+03 
       7.056954644300e-03       1.459222860324e+03 
       7.187227351743e-03       1.473431930050e+03 
       7.317600129859e-03       1.487306254960e+03 
       7.448068491705e-03       1.500850308363e+03 
       7.578628257697e-03       1.514068669613e+03 
       7.709275531791e-03       1.526965021024e+03 
       7.840006679834e-03       1.539544773815e+03 
       7.970818309857e-03       1.551811767979e+03 
       8.101707254141e-03       1.563769679569e+03 
       8.232670552846e-03       1.575423727253e+03 
       8.363705439076e-03       1.586777977421e+03 
       8.494809325229e-03       1.597835602806e+03 
       8.625979790500e-03       1.608601721749e+03 
       8.757214569446e-03       1.619080440952e+03 
       8.888511541496e-03       1.629275668578e+03 
       9.019868721331e-03       1.639191154161e+03 
       9.151284250039e-03       1.648831366708e+03 
       9.282756386994e-03       1.658201840621e+03 
       9.414283502372e-03       1.667303888587e+03 
       9.545864070270e-03       1.676141242975e+03 
       9.677496662351e-03       1.684718469874e+03 
       9.809179941995e-03       1.693039505261e+03 
       9.940912658886e-03       1.701107445449e+03 
       1.007269364402e-02       1.708926328278e+03 
       1.020452180510e-02       1.716499768123e+03 
       1.033639612222e-02       1.723830950278e+03 
       1.046831564399e-02       1.730923977818e+03 
       1.060027948378e-02       1.737781028967e+03 
       1.073228681639e-02       1.744406502507e+03 
       1.086433687490e-02       1.750803492583e+03 
       1.099642894770e-02       1.756975098068e+03 
       1.112856237583e-02       1.762924826406e+03 
       1.126073655044e-02       1.768655284295e+03 
       1.139295091047e-02       1.774170673515e+03 
       1.152520494046e-02       1.779473078367e+03 
       1.165749816853e-02       1.784565225283e+03 
       1.178983016452e-02       1.789451805414e+03 
       1.192220053825e-02       1.794133954918e+03 
       1.205460893787e-02       1.798615115483e+03 
       1.218705504840e-02       1.802898757869e+03 
       1.231953859028e-02       1.806987846726e+03 
       1.245205931810e-02       1.810882917082e+03 
       1.258461701939e-02       1.814589715130e+03 
       1.271721151347e-02       1.818109125408e+03 
       1.284984265044e-02       1.821444287110e+03 
       1.298251031021e-02       1.824596833832e+03 
       1.311521440158e-02       1.827571566135e+03 
       1.324795486143e-02       1.830369712687e+03 
       1.338073165393e-02       1.832993475204e+03 
       1.351354476986e-02       1.835446454584e+03 
       1.364639422595e-02       1.837730520334e+03 
       1.377928006424e-02       1.839847902132e+03 
       1.391220235156e-02       1.841801387853e+03 
       1.404516117903e-02       1.843593535588e+03 
       1.417815666155e-02       1.845226907226e+03 
       1.431118893742e-02       1.846702234228e+03 
       1.444425816794e-02       1.848024370321e+03 
       1.457736453706e-02       1.849193153166e+03 
       1.471050825103e-02       1.850212428193e+03 
       1.484368953822e-02       1.851083263642e+03 
       1.497690864875e-02       1.851809006458e+03 
       1.511016585436e-02       1.852390558644e+03 
       1.524346144820e-02       1.852831648570e+03 
       1.537679574464e-02       1.853133455460e+03 
       1.551016907917e-02       1.853298161354e+03 
       1.564358180828e-02       1.853328407029e+03 
       1.577703430938e-02       1.853225543075e+03 
       1.591052698073e-02       1.852992144645e+03 
       1.604406024142e-02       1.852630229657e+03 
       1.617763453133e-02       1.852141796401e+03 
       1.631125031118e-02       1.851528366979e+03 
       1.644490806251e-02       1.850792423953e+03 
       1.657860828775e-02       1.849935971982e+03 
       1.671235151029e-02       1.848960906367e+03 
       1.684613827459e-02       1.847869210343e+03 
       1.697996914622e-02       1.846661180208e+03 
       1.711384471207e-02       1.845340254360e+03 
       1.724776558040e-02       1.843909770506e+03 
       1.738173238109e-02       1.842370096658e+03 
       1.751574576578e-02       1.840721260923e+03 
       1.764980640804e-02       1.838967052670e+03 
       1.778391500363e-02       1.837109022361e+03 
       1.791807227070e-02       1.835149147490e+03 
       1.805227895006e-02       1.833088207840e+03 
       1.818653580541e-02       1.830929193177e+03 
       1.832084362365e-02       1.828672407117e+03 
       1.845520321520e-02       1.826320564867e+03 
       1.858961541424e-02       1.823874211935e+03 
       1.872408107911e-02       1.821336643666e+03 
       1.885860109264e-02       1.818708795128e+03 
       1.899317636251e-02       1.815990440190e+03 
       1.912780782161e-02       1.813186149668e+03 
       1.926249642850e-02       1.810294216962e+03 
       1.939724316775e-02       1.807321709774e+03 
       1.953204905044e-02       1.804261465777e+03 
       1.966691511458e-02       1.801125606886e+03 
       1.980184242558e-02       1.797906471542e+03 
       1.993683207674e-02       1.794610706983e+03 
       2.007188518977e-02       1.791238874861e+03 
       2.020700291530e-02       1.787789096620e+03 
       2.034218643342e-02       1.784266494348e+03 
       2.047743695426e-02       1.780672550260e+03 
       2.061275571856e-02       1.777007546528e+03 
       2.074814399829e-02       1.773272487930e+03 
       2.088360309724e-02       1.769469046106e+03 
       2.101913435170e-02       1.765598587142e+03 
       2.115473913110e-02       1.761662315590e+03 
       2.129041883873e-02       1.757665491964e+03 
       2.142617491241e-02       1.753602147226e+03 
       2.156200882525e-02       1.749479469254e+03 
       2.169792208640e-02       1.745295835873e+03 
       2.183391624183e-02       1.741053106144e+03 
       2.196999287514e-02       1.736754063105e+03 
       2.210615360838e-02       1.732395689078e+03 
       2.224240010293e-02       1.727986365742e+03 
       2.237873406036e-02       1.723519388870e+03 
       2.251515722336e-02       1.719000815758e+03 
       2.265167137665e-02       1.714434691088e+03 
       2.278827834800e-02       1.709814754616e+03 
       2.292498000920e-02       1.705145648592e+03 
       2.306177827707e-02       1.700431056873e+03 
       2.319867511457e-02       1.695667732283e+03 
       2.333567253186e-02       1.690860831301e+03 
       2.347277258747e-02       1.686007594128e+03 
       2.360997738941e-02       1.681113434038e+03 
       2.374728909641e-02       1.676175616221e+03 
       2.388470991917e-02       1.671200369076e+03 
       2.402224212160e-02       1.666183807185e+03 
       2.415988802217e-02       1.661127962788e+03 
       2.429764999526e-02       1.656031806380e+03 
       2.443553047256e-02       1.650902645764e+03 
       2.457353194453e-02       1.645739812114e+03 
       2.471165696187e-02       1.640540117069e+03 
       2.484990813710e-02       1.635307166898e+03 
       2.498828814611e-02       1.630043424047e+03 
       2.512679972984e-02       1.624745500688e+03 
       2.526544569592e-02       1.619419539878e+03 
       2.540422892050e-02       1.614065399648e+03 
       2.554315234997e-02       1.608681009658e+03 
       2.568221900292e-02       1.603268437830e+03 
       2.582143197196e-02       1.597828673775e+03 
       2.596079442580e-02       1.592364888191e+03 
       2.610030961129e-02       1.586877260766e+03 
       2.623998085549e-02       1.581368777600e+03 
       2.637981156794e-02       1.575831897864e+03 
       2.651980524290e-02       1.570276237474e+03 
       2.665996546168e-02       1.564696976293e+03 
       2.680029589511e-02       1.559100526397e+03 
       2.694080030602e-02       1.553481154361e+03 
       2.708148255186e-02       1.547846445570e+03 
       2.722234658737e-02       1.542193937493e+03 
       2.736339646738e-02       1.536521743617e+03 
       2.750463634970e-02       1.530831811457e+03 
       2.764607049807e-02       1.525131924694e+03 
       2.778770328530e-02       1.519411568240e+03 
       2.792953919641e-02       1.513684926169e+03 
       2.807158283200e-02       1.507938552147e+03 
       2.821383891169e-02       1.502179271023e+03 
       2.835631227763e-02       1.496409129764e+03 
       2.849900789825e-02       1.490629202801e+03 
       2.864193087208e-02       1.484840838573e+03 
       2.878508643170e-02       1.479036737805e+03 
       2.892847994792e-02       1.473228098027e+03 
       2.907211693401e-02       1.467406600834e+03 
       2.921600305018e-02       1.461586497933e+03 
       2.936014410820e-02       1.455749028371e+03 
       2.950454607619e-02       1.449908836842e+03 
       2.964921508358e-02       1.444061248163e+03 
       2.979415742637e-02       1.438211799169e+03 
       2.993937957245e-02       1.432353898686e+03 
       3.008488816723e-02       1.426491683707e+03 
       3.023069003948e-02       1.420625689229e+03 
       3.037679220740e-02       1.414755983196e+03 
       3.052320188494e-02       1.408883196829e+03 
       3.066992648838e-02       1.403009709775e+03 
       3.081697364318e-02       1.397136239507e+03 
       3.096435119115e-02       1.391253877326e+03 
       3.111206719787e-02       1.385373750915e+03 
       3.126012996051e-02       1.379495341359e+03 
       3.140854801586e-02       1.373620339165e+03 
       3.155733014887e-02       1.367740284752e+03 
       3.170648540141e-02       1.361861682469e+03 
       3.185602308155e-02       1.355985154274e+03 
       3.200595277315e-02       1.350114670753e+03 
       3.215628434598e-02       1.344240305405e+03 
       3.230702796621e-02       1.338371571590e+03 
       3.245819410741e-02       1.332505331947e+03 
       3.260979356215e-02       1.326637611320e+03 
       3.276183745398e-02       1.320778435201e+03 
       3.291433725013e-02       1.314924008216e+03 
       3.306730477471e-02       1.309071181736e+03 
       3.322075222260e-02       1.303219216153e+03 
       3.337469217403e-02       1.297378170694e+03 
       3.352913760980e-02       1.291544756954e+03 
       3.368410192736e-02       1.285710670003e+03 
       3.383959895760e-02       1.279884436992e+03 
       3.399564298254e-02       1.274064376061e+03 
       3.415224875396e-02       1.268248824146e+03 
       3.430943151287e-02       1.262443772668e+03 
       3.446720701016e-02       1.256638682587e+03 
       3.462559152820e-02       1.250847409873e+03 
       3.478460190367e-02       1.245059161096e+03 
       3.494425555159e-02       1.239280443832e+03 
       3.510457049068e-02       1.233506322630e+03 
       3.526556537007e-02       1.227746524232e+03 
       3.542725949757e-02       1.221988788475e+03 
       3.558967286947e-02       1.216239781276e+03 
       3.575282620204e-02       1.210497146133e+03 
       3.591674096486e-02       1.204764973684e+03 
       3.608143941613e-02       1.199041633581e+03 
       3.624694463996e-02       1.193325956426e+03 
       3.641328058594e-02       1.187621371264e+03 
       3.658047211114e-02       1.181923133976e+03 
       3.674854502456e-02       1.176235430376e+03 
       3.691752613441e-02       1.170553032381e+03 
       3.708744329831e-02       1.164880412772e+03 
       3.725832547669e-02       1.159216216280e+03 
       3.743020278953e-02       1.153561797697e+03 
       3.760310657689e-02       1.147915044671e+03 
       3.777706946333e-02       1.142282636147e+03 
       3.795212542663e-02       1.136651429281e+03 
       3.812830987117e-02       1.131031813803e+03 
       3.830565970624e-02       1.125420697812e+03 
       3.848421342989e-02       1.119821555221e+03 
       3.866401121852e-02       1.114227838616e+03 
       3.884509502293e-02       1.108639772017e+03 
       3.902750867120e-02       1.103065850962e+03 
       3.921129797920e-02       1.097498259798e+03 
       3.939651086917e-02       1.091935048766e+03 
       3.958319749728e-02       1.086380615856e+03 
       3.977141039084e-02       1.080836637601e+03 
       3.996120459624e-02       1.075299493334e+03 
       4.015263783837e-02       1.069769259429e+03 
       4.034577069283e-02       1.064243438443e+03 
       4.054066677207e-02       1.058727430002e+03 
       4.073739292676e-02       1.053214393410e+03 
       4.093601946408e-02       1.047709878152e+03 
       4.113662038441e-02       1.042214130907e+03 
       4.133927363850e-02       1.036721747879e+03 
       4.154406140720e-02       1.031230495978e+03 
       4.175107040600e-02       1.025758166564e+03 
       4.196039221729e-02       1.020269088281e+03 
       4.217212365321e-02       1.014794422070e+03 
       4.238636715250e-02       1.009321682004e+03 
       4.260323121533e-02       1.003848799503e+03 
       4.282283088035e-02       9.983858845247e+02 
       4.304528824899e-02       9.929160446103e+02 
       4.327073306268e-02       9.874534055252e+02 
       4.349930333937e-02       9.819918962050e+02 
       4.373114607684e-02       9.765251705478e+02 
       4.396641803108e-02       9.710598108796e+02 
       4.420528657961e-02       9.655932648879e+02 
       4.444793068082e-02       9.601228094081e+02 
       4.469454194227e-02       9.546490702837e+02 
       4.494532581288e-02       9.491686740869e+02 
       4.520050291638e-02       9.436867130379e+02 
       4.546031054620e-02       9.381940044696e+02 
       4.572500434546e-02       9.326943426040e+02 
       4.599486019958e-02       9.271826955663e+02 
       4.627017637418e-02       9.216613270702e+02 
       4.655127593643e-02       9.161281648162e+02 
       4.683850950528e-02       9.105832649878e+02 
       4.713225838436e-02       9.050189810675e+02 
       4.743293814168e-02       8.994378243289e+02 
       4.774100271297e-02       8.938367283866e+02 
       4.805694912064e-02       8.882124849815e+02 
       4.838132291952e-02       8.825650268290e+02 
       4.871472450393e-02       8.768922993532e+02 
       4.905781643925e-02       8.711833441746e+02 
       4.941133201783e-02       8.654447686418e+02 
       4.977608528353e-02       8.596673551128e+02 
       5.015298282618e-02       8.538499010451e+02 
       5.054303771845e-02       8.479844976308e+02 
       5.094738605757e-02       8.420676742520e+02 
       5.136730668884e-02       8.360965090129e+02 
       5.180424483333e-02       8.300632183453e+02 
       5.225984052739e-02       8.239571664565e+02 
       5.273596301788e-02       8.177745307415e+02 
       5.323475255774e-02       8.115012608623e+02 
       5.375867142783e-02       8.051276406512e+02 
       5.431056648953e-02       7.986389218562e+02 
       5.489374616450e-02       7.920210477109e+02 
       5.551207544878e-02       7.852548598266e+02 
       5.617009337762e-02       7.783140434146e+02 
       5.687315818582e-02       7.711696614101e+02 
       5.762762604582e-02       7.637833952368e+02 
       5.844106924229e-02       7.561105384664e+02 
       5.932253797381e-02       7.480887317106e+02 
       6.028286471725e-02       7.396382675616e+02 
       6.133499760901e-02       7.306549098862e+02 
       6.249432323971e-02       7.209997427291e+02 
       6.377888977286e-02       7.104881994500e+02 
       6.520935658723e-02       6.988726684187e+02 
