# Matter power spectrum P(k) at redshift z=5
# for k=1.0515e-05 to 1011.22 h/Mpc,
# number of wavenumbers equal to 625
#    1:k (h/Mpc)              2:P (Mpc/h)^3        
       1.051502443274e-05       1.959225368091e+00 
       2.383305555791e-05       4.381475965384e+00 
       3.720032138667e-05       6.785231700977e+00 
       5.065527352169e-05       9.186787177461e+00 
       6.423703527263e-05       1.159727248762e+01 
       7.798577448385e-05       1.402609996118e+01 
       9.194308895719e-05       1.648200056574e+01 
       1.061524099246e-04       1.897348389131e+01 
       1.206594290639e-04       2.150909994213e+01 
       1.355125545857e-04       2.409761790842e+01 
       1.507634019111e-04       2.674816767512e+01 
       1.664673243456e-04       2.947036341256e+01 
       1.826839888649e-04       3.227442079508e+01 
       1.994780015443e-04       3.517127232593e+01 
       2.169195861454e-04       3.817268419639e+01 
       2.350853177219e-04       4.129137709008e+01 
       2.540589105615e-04       4.454115015464e+01 
       2.739320560184e-04       4.793700838502e+01 
       2.948053003896e-04       5.149529113373e+01 
       3.167889454767e-04       5.523379814012e+01 
       3.400039442916e-04       5.917190803230e+01 
       3.645827509788e-04       6.333068038291e+01 
       3.906700669834e-04       6.773293210998e+01 
       4.184234046588e-04       7.240327164330e+01 
       4.480133652997e-04       7.736807392830e+01 
       4.796235024583e-04       8.265537245730e+01 
       5.134496163059e-04       8.829464279534e+01 
       5.496983057796e-04       9.431644817883e+01 
       5.885845997888e-04       1.007519189560e+02 
       6.303285066324e-04       1.076320444826e+02 
       6.751503728949e-04       1.149867633642e+02 
       7.232650387744e-04       1.228438612740e+02 
       7.748749193552e-04       1.312277101669e+02 
       8.301623226435e-04       1.401579191912e+02 
       8.892815110274e-04       1.496479954622e+02 
       9.523511824922e-04       1.597041448040e+02 
       1.019448140944e-03       1.703243559861e+02 
       1.090602896095e-03       1.814978895634e+02 
       1.165797761633e-03       1.932052616105e+02 
       1.244967724173e-03       2.054187532434e+02 
       1.328003993343e-03       2.181033928325e+02 
       1.414759797565e-03       2.312183101752e+02 
       1.505057738473e-03       2.447183264062e+02 
       1.598697906169e-03       2.585555836327e+02 
       1.695465991093e-03       2.726811132955e+02 
       1.795140772383e-03       2.870462054679e+02 
       1.897500564077e-03       3.016035154293e+02 
       2.002328407702e-03       3.163078976818e+02 
       2.109415975364e-03       3.311169832811e+02 
       2.218566273400e-03       3.459915059118e+02 
       2.329595311101e-03       3.608949249540e+02 
       2.442332930034e-03       3.757950996408e+02 
       2.556622989608e-03       3.906625500896e+02 
       2.672323085694e-03       4.054709135616e+02 
       2.789303951238e-03       4.201967131115e+02 
       2.907448657645e-03       4.348192315590e+02 
       3.026651707360e-03       4.493202562733e+02 
       3.146818083614e-03       4.636838804639e+02 
       3.267862303363e-03       4.778963308165e+02 
       3.389707503916e-03       4.919456808618e+02 
       3.512284582106e-03       5.058217295376e+02 
       3.635531396391e-03       5.195157359941e+02 
       3.759392036357e-03       5.330204503392e+02 
       3.883816160041e-03       5.463296153909e+02 
       4.008758396935e-03       5.594380754734e+02 
       4.134177812925e-03       5.723416443869e+02 
       4.260037432564e-03       5.850368576579e+02 
       4.386303813726e-03       5.975213039688e+02 
       4.512946669633e-03       6.097926439519e+02 
       4.639938533394e-03       6.218497052914e+02 
       4.767254460513e-03       6.336914091893e+02 
       4.894871765148e-03       6.453174429678e+02 
       5.022769786274e-03       6.567277945895e+02 
       5.150929680317e-03       6.679226737448e+02 
       5.279334237146e-03       6.789028815647e+02 
       5.407967716687e-03       6.896691396676e+02 
       5.536815703712e-03       7.002226052436e+02 
       5.665864978661e-03       7.105649832430e+02 
       5.795103402611e-03       7.206973285901e+02 
       5.924519814702e-03       7.306216835567e+02 
       6.054103940588e-03       7.403395479381e+02 
       6.183846310604e-03       7.498529274150e+02 
       6.313738186537e-03       7.591639813287e+02 
       6.443771496011e-03       7.682746436939e+02 
       6.573938773606e-03       7.771871216149e+02 
       6.704233107961e-03       7.859036887932e+02 
       6.834648094188e-03       7.944264627656e+02 
       6.965177791007e-03       8.027578621938e+02 
       7.095816682074e-03       8.109004301448e+02 
       7.226559641066e-03       8.188562846418e+02 
       7.357401900096e-03       8.266276938921e+02 
       7.488339021120e-03       8.342175058716e+02 
       7.619366870015e-03       8.416273941332e+02 
       7.750481593044e-03       8.488600132316e+02 
       7.881679595471e-03       8.559180640540e+02 
       8.012957522106e-03       8.628035951673e+02 
       8.144312239576e-03       8.695186937589e+02 
       8.275740820160e-03       8.760661847746e+02 
       8.407240527031e-03       8.824479846201e+02 
       8.538808800770e-03       8.886663098891e+02 
       8.670443247018e-03       8.947235067014e+02 
       8.802141625180e-03       9.006222113356e+02 
       8.933901838055e-03       9.063643591406e+02 
       9.065721922330e-03       9.119519027396e+02 
       9.197600039841e-03       9.173872782512e+02 
       9.329534469545e-03       9.226721608887e+02 
       9.461523600127e-03       9.278097056669e+02 
       9.593565923190e-03       9.328009473264e+02 
       9.725660026985e-03       9.376482477783e+02 
       9.857804590619e-03       9.423539155742e+02 
       9.989998378713e-03       9.469195322439e+02 
       1.012224023646e-02       9.513473453923e+02 
       1.025452908507e-02       9.556393476727e+02 
       1.038686391753e-02       9.597972128854e+02 
       1.051924379471e-02       9.638229535584e+02 
       1.065166784174e-02       9.677182896221e+02 
       1.078413524466e-02       9.714850505091e+02 
       1.091664524726e-02       9.751272380702e+02 
       1.104919714827e-02       9.786429435744e+02 
       1.118179029862e-02       9.820356129311e+02 
       1.131442409899e-02       9.853069606441e+02 
       1.144709799747e-02       9.884584581539e+02 
       1.157981148742e-02       9.914919592196e+02 
       1.171256410550e-02       9.944093011227e+02 
       1.184535542979e-02       9.972118780445e+02 
       1.197818507807e-02       9.999014126277e+02 
       1.211105270621e-02       1.002479267393e+03 
       1.224395800673e-02       1.004947617513e+03 
       1.237690070735e-02       1.007307509842e+03 
       1.250988056973e-02       1.009560208724e+03 
       1.264289738831e-02       1.011707832266e+03 
       1.277595098915e-02       1.013751614459e+03 
       1.290904122892e-02       1.015692682342e+03 
       1.304216799395e-02       1.017532985785e+03 
       1.317533119933e-02       1.019274084436e+03 
       1.330853078813e-02       1.020916593248e+03 
       1.344176673058e-02       1.022462712779e+03 
       1.357503902343e-02       1.023913381832e+03 
       1.370834768926e-02       1.025270162632e+03 
       1.384169277590e-02       1.026534216410e+03 
       1.397507435591e-02       1.027706980027e+03 
       1.410849252602e-02       1.028789982489e+03 
       1.424194740674e-02       1.029784449388e+03 
       1.437543914188e-02       1.030691575625e+03 
       1.450896789824e-02       1.031512398415e+03 
       1.464253386518e-02       1.032248682084e+03 
       1.477613725440e-02       1.032900938798e+03 
       1.490977829962e-02       1.033470976484e+03 
       1.504345725635e-02       1.033959629333e+03 
       1.517717440167e-02       1.034368759373e+03 
       1.531093003405e-02       1.034698643542e+03 
       1.544472447320e-02       1.034951255052e+03 
       1.557855805995e-02       1.035127451871e+03 
       1.571243115613e-02       1.035228222169e+03 
       1.584634414449e-02       1.035254726574e+03 
       1.598029742865e-02       1.035208904153e+03 
       1.611429143309e-02       1.035090738830e+03 
       1.624832660310e-02       1.034902423330e+03 
       1.638240340483e-02       1.034643885451e+03 
       1.651652232528e-02       1.034317131418e+03 
       1.665068387240e-02       1.033922611823e+03 
       1.678488857513e-02       1.033462035753e+03 
       1.691913698349e-02       1.032935895494e+03 
       1.705342966873e-02       1.032345404058e+03 
       1.718776722340e-02       1.031692415621e+03 
       1.732215026153e-02       1.030976286799e+03 
       1.745657941882e-02       1.030199530315e+03 
       1.759105535276e-02       1.029362171809e+03 
       1.772557874289e-02       1.028465759457e+03 
       1.786015029098e-02       1.027510784548e+03 
       1.799477072128e-02       1.026498887656e+03 
       1.812944078076e-02       1.025430538570e+03 
       1.826416123941e-02       1.024306998968e+03 
       1.839893289046e-02       1.023127920710e+03 
       1.853375655078e-02       1.021897477693e+03 
       1.866863306108e-02       1.020612824835e+03 
       1.880356328635e-02       1.019276710456e+03 
       1.893854811616e-02       1.017889848892e+03 
       1.907358846503e-02       1.016453515518e+03 
       1.920868527284e-02       1.014967516884e+03 
       1.934383950519e-02       1.013433349711e+03 
       1.947905215389e-02       1.011851792769e+03 
       1.961432423733e-02       1.010224095153e+03 
       1.974965680097e-02       1.008551089970e+03 
       1.988505091781e-02       1.006832822448e+03 
       2.002050768889e-02       1.005070564001e+03 
       2.015602824378e-02       1.003264979804e+03 
       2.029161374112e-02       1.001417834404e+03 
       2.042726536918e-02       9.995288376100e+02 
       2.056298434642e-02       9.975986953169e+02 
       2.069877192205e-02       9.956283972986e+02 
       2.083462937669e-02       9.936182814485e+02 
       2.097055802296e-02       9.915722677951e+02 
       2.110655920616e-02       9.894870979157e+02 
       2.124263430489e-02       9.873641957947e+02 
       2.137878473182e-02       9.852063962187e+02 
       2.151501193431e-02       9.830113694582e+02 
       2.165131739525e-02       9.807832332325e+02 
       2.178770263376e-02       9.785200559766e+02 
       2.192416920596e-02       9.762258418614e+02 
       2.206071870586e-02       9.738955987668e+02 
       2.219735276612e-02       9.715347876046e+02 
       2.233407305896e-02       9.691447716914e+02 
       2.247088129702e-02       9.667220299547e+02 
       2.260777923431e-02       9.642704738810e+02 
       2.274476866714e-02       9.617887073743e+02 
       2.288185143508e-02       9.592794333799e+02 
       2.301902942201e-02       9.567420009420e+02 
       2.315630455713e-02       9.541778424366e+02 
       2.329367881602e-02       9.515867388714e+02 
       2.343115422179e-02       9.489703293326e+02 
       2.356873284616e-02       9.463284513761e+02 
       2.370641681068e-02       9.436610034389e+02 
       2.384420828792e-02       9.409711076498e+02 
       2.398210950273e-02       9.382575649746e+02 
       2.412012273352e-02       9.355208111668e+02 
       2.425825031358e-02       9.327618847428e+02 
       2.439649463248e-02       9.299827708753e+02 
       2.453485813745e-02       9.271818011716e+02 
       2.467334333486e-02       9.243606452085e+02 
       2.481195279172e-02       9.215194122968e+02 
       2.495068913721e-02       9.186599044774e+02 
       2.508955506433e-02       9.157809809162e+02 
       2.522855333152e-02       9.128836617795e+02 
       2.536768676437e-02       9.099691841521e+02 
       2.550695825738e-02       9.070378963233e+02 
       2.564637077582e-02       9.040912344666e+02 
       2.578592735753e-02       9.011273301779e+02 
       2.592563111496e-02       8.981496594697e+02 
       2.606548523709e-02       8.951540916072e+02 
       2.620549299156e-02       8.921465461384e+02 
       2.634565772678e-02       8.891247493463e+02 
       2.648598287415e-02       8.860893758602e+02 
       2.662647195038e-02       8.830413831699e+02 
       2.676712855980e-02       8.799805369381e+02 
       2.690795639684e-02       8.769080850235e+02 
       2.704895924859e-02       8.738237231862e+02 
       2.719014099736e-02       8.707300231434e+02 
       2.733150562342e-02       8.676255958260e+02 
       2.747305720782e-02       8.645084924913e+02 
       2.761479993526e-02       8.613836720495e+02 
       2.775673809712e-02       8.582501147938e+02 
       2.789887609459e-02       8.551071139906e+02 
       2.804121844184e-02       8.519545273733e+02 
       2.818376976944e-02       8.487916698945e+02 
       2.832653482774e-02       8.456271073543e+02 
       2.846951849055e-02       8.424524213655e+02 
       2.861272575880e-02       8.392732979777e+02 
       2.875616176442e-02       8.360849768566e+02 
       2.889983177437e-02       8.328922904727e+02 
       2.904374119478e-02       8.296917101685e+02 
       2.918789557527e-02       8.264871657074e+02 
       2.933230061344e-02       8.232750610504e+02 
       2.947696215952e-02       8.200633353087e+02 
       2.962188622121e-02       8.168449659739e+02 
       2.976707896872e-02       8.136211498493e+02 
       2.991254673998e-02       8.103955485050e+02 
       3.005829604607e-02       8.071663363674e+02 
       3.020433357690e-02       8.039317399406e+02 
       3.035066620708e-02       8.006964020721e+02 
       3.049730100201e-02       7.974584770374e+02 
       3.064424522432e-02       7.942173573558e+02 
       3.079150634043e-02       7.909759620560e+02 
       3.093909202753e-02       7.877327323239e+02 
       3.108701018077e-02       7.844878948415e+02 
       3.123526892072e-02       7.812415003726e+02 
       3.138387660131e-02       7.779940797787e+02 
       3.153284181789e-02       7.747477860994e+02 
       3.168217341587e-02       7.715003742727e+02 
       3.183188049955e-02       7.682524263156e+02 
       3.198197244143e-02       7.650054309861e+02 
       3.213245889198e-02       7.617570420210e+02 
       3.228334978974e-02       7.585127074097e+02 
       3.243465537201e-02       7.552663096780e+02 
       3.258638618587e-02       7.520221208925e+02 
       3.273855309991e-02       7.487797894557e+02 
       3.289116731631e-02       7.455363240811e+02 
       3.304424038368e-02       7.422946099671e+02 
       3.319778421033e-02       7.390571756611e+02 
       3.335181107837e-02       7.358202841784e+02 
       3.350633365831e-02       7.325878643018e+02 
       3.366136502453e-02       7.293546460255e+02 
       3.381691867143e-02       7.261252982307e+02 
       3.397300853041e-02       7.228997300879e+02 
       3.412964898777e-02       7.196773426075e+02 
       3.428685490339e-02       7.164535770326e+02 
       3.444464163055e-02       7.132367542462e+02 
       3.460302503664e-02       7.100238181857e+02 
       3.476202152506e-02       7.068116325247e+02 
       3.492164805820e-02       7.036038551423e+02 
       3.508192218178e-02       7.004001333119e+02 
       3.524286205037e-02       6.971994108094e+02 
       3.540448645449e-02       6.940014395695e+02 
       3.556681484902e-02       6.908081201882e+02 
       3.572986738339e-02       6.876230144314e+02 
       3.589366493340e-02       6.844365922622e+02 
       3.605822913485e-02       6.812535501758e+02 
       3.622358241922e-02       6.780795294826e+02 
       3.638974805139e-02       6.749069625226e+02 
       3.655675016957e-02       6.717375807370e+02 
       3.672461382778e-02       6.685726413858e+02 
       3.689336504073e-02       6.654137667174e+02 
       3.706303083167e-02       6.622598023607e+02 
       3.723363928308e-02       6.591089565205e+02 
       3.740521959063e-02       6.559621696650e+02 
       3.757780212063e-02       6.528189753959e+02 
       3.775141847115e-02       6.496828411180e+02 
       3.792610153719e-02       6.465488422174e+02 
       3.810188558017e-02       6.434191213069e+02 
       3.827880630213e-02       6.402947687440e+02 
       3.845690092497e-02       6.371743426483e+02 
       3.863620827524e-02       6.340576170870e+02 
       3.881676887478e-02       6.309464681009e+02 
       3.899862503789e-02       6.278381357292e+02 
       3.918182097550e-02       6.247340594202e+02 
       3.936640290690e-02       6.216335656190e+02 
       3.955241917984e-02       6.185375506872e+02 
       3.973992039963e-02       6.154468103538e+02 
       3.992895956804e-02       6.123573986264e+02 
       4.011959223310e-02       6.092733170514e+02 
       4.031187665054e-02       6.061923190427e+02 
       4.050587395816e-02       6.031112630918e+02 
       4.070164836445e-02       6.000369301627e+02 
       4.089926735252e-02       5.969662062110e+02 
       4.109880190129e-02       5.938954514130e+02 
       4.130032672540e-02       5.908283162651e+02 
       4.150392053578e-02       5.877622087797e+02 
       4.170966632324e-02       5.847031498906e+02 
       4.191765166724e-02       5.816419470705e+02 
       4.212796907282e-02       5.785834985339e+02 
       4.234071633855e-02       5.755272370681e+02 
       4.255599695916e-02       5.724727965088e+02 
       4.277392056667e-02       5.694145066999e+02 
       4.299460341451e-02       5.663616148726e+02 
       4.321816890966e-02       5.633073276627e+02 
       4.344474819864e-02       5.602525671709e+02 
       4.367448081386e-02       5.571981052997e+02 
       4.390751538791e-02       5.541400658860e+02 
       4.414401044431e-02       5.510835754375e+02 
       4.438413527473e-02       5.480234385735e+02 
       4.462807091402e-02       5.449619208014e+02 
       4.487601122628e-02       5.418982998107e+02 
       4.512816411722e-02       5.388302798978e+02 
       4.538475289044e-02       5.357555820381e+02 
       4.564601776852e-02       5.326795049550e+02 
       4.591221760276e-02       5.295978749896e+02 
       4.618363180011e-02       5.265092076579e+02 
       4.646056250037e-02       5.234118318120e+02 
       4.674333704292e-02       5.203084106889e+02 
       4.703231076955e-02       5.171952193031e+02 
       4.732787021830e-02       5.140724932653e+02 
       4.763043677427e-02       5.109381911033e+02 
       4.794047085603e-02       5.077912151777e+02 
       4.825847673212e-02       5.046316131026e+02 
       4.858500808172e-02       5.014563890598e+02 
       4.892067443761e-02       4.982653084968e+02 
       4.926614867919e-02       4.950543153455e+02 
       4.962217578095e-02       4.918235484951e+02 
       4.998958306763e-02       4.885696626589e+02 
       5.036929228636e-02       4.852917984871e+02 
       5.076233387896e-02       4.819857206857e+02 
       5.116986393123e-02       4.786501275615e+02 
       5.159318439358e-02       4.752786390972e+02 
       5.203376731819e-02       4.718714034916e+02 
       5.249328404876e-02       4.684223690598e+02 
       5.297364054341e-02       4.649251979879e+02 
       5.347702032185e-02       4.613749480996e+02 
       5.400593692094e-02       4.577653000137e+02 
       5.456329823656e-02       4.540881370006e+02 
       5.515248573757e-02       4.503352300000e+02 
       5.577745226463e-02       4.464905536826e+02 
       5.644284294715e-02       4.425462265014e+02 
       5.715414459413e-02       4.384796258889e+02 
       5.791786950706e-02       4.342712897161e+02 
       5.874177950641e-02       4.298922760034e+02 
       5.963515398492e-02       4.253080750280e+02 
       6.060909989126e-02       4.204712835542e+02 
       6.167688778558e-02       4.153220359692e+02 
       6.285426972403e-02       4.097786174702e+02 
       6.415968143061e-02       4.037294850335e+02 
       6.561414133275e-02       3.970370139455e+02 
