# Matter power spectrum P(k) at redshift z=4.5
# for k=1.0515e-05 to 1011.22 h/Mpc,
# number of wavenumbers equal to 625
#    1:k (h/Mpc)              2:P (Mpc/h)^3        
       1.051502443274e-05       2.330463370281e+00 
       2.383305555791e-05       5.211685883043e+00 
       3.720032138667e-05       8.070906671005e+00 
       5.065527352169e-05       1.092750646709e+01 
       6.423703527263e-05       1.379472287156e+01 
       7.798577448385e-05       1.668375008330e+01 
       9.194308895719e-05       1.960497165922e+01 
       1.061524099246e-04       2.256850762094e+01 
       1.206594290639e-04       2.558452578602e+01 
       1.355125545857e-04       2.866345433431e+01 
       1.507634019111e-04       3.181615000626e+01 
       1.664673243456e-04       3.505404513142e+01 
       1.826839888649e-04       3.838928682328e+01 
       1.994780015443e-04       4.183487403082e+01 
       2.169195861454e-04       4.540479643073e+01 
       2.350853177219e-04       4.911417782386e+01 
       2.540589105615e-04       5.297942338644e+01 
       2.739320560184e-04       5.701837085307e+01 
       2.948053003896e-04       6.125044298322e+01 
       3.167889454767e-04       6.569679704874e+01 
       3.400039442916e-04       7.038046511510e+01 
       3.645827509788e-04       7.532647493168e+01 
       3.906700669834e-04       8.056193986294e+01 
       4.184234046588e-04       8.611609873749e+01 
       4.480133652997e-04       9.202028500322e+01 
       4.796235024583e-04       9.830779726893e+01 
       5.134496163059e-04       1.050136406067e+02 
       5.496983057796e-04       1.121741039651e+02 
       5.885845997888e-04       1.198261400993e+02 
       6.303285066324e-04       1.280065228761e+02 
       6.751503728949e-04       1.367507654198e+02 
       7.232650387744e-04       1.460918105437e+02 
       7.748749193552e-04       1.560585341848e+02 
       8.301623226435e-04       1.666741451521e+02 
       8.892815110274e-04       1.779545993386e+02 
       9.523511824922e-04       1.899071818402e+02 
       1.019448140944e-03       2.025294279414e+02 
       1.090602896095e-03       2.158085255752e+02 
       1.165797761633e-03       2.297213050506e+02 
       1.244967724173e-03       2.442348511818e+02 
       1.328003993343e-03       2.593076721720e+02 
       1.414759797565e-03       2.748913055009e+02 
       1.505057738473e-03       2.909321969232e+02 
       1.598697906169e-03       3.073736218009e+02 
       1.695465991093e-03       3.241575306445e+02 
       1.795140772383e-03       3.412261579132e+02 
       1.897500564077e-03       3.585233220590e+02 
       2.002328407702e-03       3.759954075864e+02 
       2.109415975364e-03       3.935920505401e+02 
       2.218566273400e-03       4.112665324246e+02 
       2.329595311101e-03       4.289753454153e+02 
       2.442332930034e-03       4.466801993299e+02 
       2.556622989608e-03       4.643459726177e+02 
       2.672323085694e-03       4.819412684074e+02 
       2.789303951238e-03       4.994381379520e+02 
       2.907448657645e-03       5.168119498653e+02 
       3.026651707360e-03       5.340410863604e+02 
       3.146818083614e-03       5.511066716443e+02 
       3.267862303363e-03       5.679923777175e+02 
       3.389707503916e-03       5.846840675107e+02 
       3.512284582106e-03       6.011696429973e+02 
       3.635531396391e-03       6.174387263551e+02 
       3.759392036357e-03       6.334826971509e+02 
       3.883816160041e-03       6.492941042057e+02 
       4.008758396935e-03       6.648668017907e+02 
       4.134177812925e-03       6.801957984710e+02 
       4.260037432564e-03       6.952769692482e+02 
       4.386303813726e-03       7.101074515840e+02 
       4.512946669633e-03       7.246844790620e+02 
       4.639938533394e-03       7.390066809261e+02 
       4.767254460513e-03       7.530728013106e+02 
       4.894871765148e-03       7.668824943725e+02 
       5.022769786274e-03       7.804357672043e+02 
       5.150929680317e-03       7.937328834676e+02 
       5.279334237146e-03       8.067748026574e+02 
       5.407967716687e-03       8.195623842365e+02 
       5.536815703712e-03       8.320970024314e+02 
       5.665864978661e-03       8.443806825293e+02 
       5.795103402611e-03       8.564146800181e+02 
       5.924519814702e-03       8.682014271092e+02 
       6.054103940588e-03       8.797427157837e+02 
       6.183846310604e-03       8.910409416718e+02 
       6.313738186537e-03       9.020986840800e+02 
       6.443771496011e-03       9.129182530975e+02 
       6.573938773606e-03       9.235022809425e+02 
       6.704233107961e-03       9.338534753509e+02 
       6.834648094188e-03       9.439743537069e+02 
       6.965177791007e-03       9.538678089737e+02 
       7.095816682074e-03       9.635368195295e+02 
       7.226559641066e-03       9.729839291825e+02 
       7.357401900096e-03       9.822118304253e+02 
       7.488339021120e-03       9.912238957968e+02 
       7.619366870015e-03       1.000022142518e+03 
       7.750481593044e-03       1.008609725944e+03 
       7.881679595471e-03       1.016989862897e+03 
       8.012957522106e-03       1.025164992106e+03 
       8.144312239576e-03       1.033137596974e+03 
       8.275740820160e-03       1.040911037721e+03 
       8.407240527031e-03       1.048487589041e+03 
       8.538808800770e-03       1.055869885933e+03 
       8.670443247018e-03       1.063060720268e+03 
       8.802141625180e-03       1.070063224206e+03 
       8.933901838055e-03       1.076879700411e+03 
       9.065721922330e-03       1.083512474494e+03 
       9.197600039841e-03       1.089964444665e+03 
       9.329534469545e-03       1.096237607445e+03 
       9.461523600127e-03       1.102335715696e+03 
       9.593565923190e-03       1.108260002262e+03 
       9.725660026985e-03       1.114013275226e+03 
       9.857804590619e-03       1.119598278528e+03 
       9.989998378713e-03       1.125016889697e+03 
       1.012224023646e-02       1.130271771066e+03 
       1.025452908507e-02       1.135365209417e+03 
       1.038686391753e-02       1.140301093944e+03 
       1.051924379471e-02       1.145078883246e+03 
       1.065166784174e-02       1.149701526983e+03 
       1.078413524466e-02       1.154171537850e+03 
       1.091664524726e-02       1.158491043646e+03 
       1.104919714827e-02       1.162662335252e+03 
       1.118179029862e-02       1.166687378351e+03 
       1.131442409899e-02       1.170568294419e+03 
       1.144709799747e-02       1.174306841412e+03 
       1.157981148742e-02       1.177905224738e+03 
       1.171256410550e-02       1.181365628642e+03 
       1.184535542979e-02       1.184689708805e+03 
       1.197818507807e-02       1.187879511816e+03 
       1.211105270621e-02       1.190936656541e+03 
       1.224395800673e-02       1.193863726381e+03 
       1.237690070735e-02       1.196661964091e+03 
       1.250988056973e-02       1.199332870981e+03 
       1.264289738831e-02       1.201878962623e+03 
       1.277595098915e-02       1.204301704724e+03 
       1.290904122892e-02       1.206602436436e+03 
       1.304216799395e-02       1.208783475154e+03 
       1.317533119933e-02       1.210846675239e+03 
       1.330853078813e-02       1.212792769616e+03 
       1.344176673058e-02       1.214624373161e+03 
       1.357503902343e-02       1.216342606626e+03 
       1.370834768926e-02       1.217949325069e+03 
       1.384169277590e-02       1.219445913589e+03 
       1.397507435591e-02       1.220834107993e+03 
       1.410849252602e-02       1.222115683521e+03 
       1.424194740674e-02       1.223292089294e+03 
       1.437543914188e-02       1.224364741703e+03 
       1.450896789824e-02       1.225334879662e+03 
       1.464253386518e-02       1.226204623605e+03 
       1.477613725440e-02       1.226974568485e+03 
       1.490977829962e-02       1.227646870411e+03 
       1.504345725635e-02       1.228222510047e+03 
       1.517717440167e-02       1.228703708847e+03 
       1.531093003405e-02       1.229090794127e+03 
       1.544472447320e-02       1.229386109967e+03 
       1.557855805995e-02       1.229590677081e+03 
       1.571243115613e-02       1.229705670961e+03 
       1.584634414449e-02       1.229732470688e+03 
       1.598029742865e-02       1.229673380756e+03 
       1.611429143309e-02       1.229528382813e+03 
       1.624832660310e-02       1.229300082252e+03 
       1.638240340483e-02       1.228988394811e+03 
       1.651652232528e-02       1.228595702955e+03 
       1.665068387240e-02       1.228122543557e+03 
       1.678488857513e-02       1.227570946098e+03 
       1.691913698349e-02       1.226941498563e+03 
       1.705342966873e-02       1.226235640006e+03 
       1.718776722340e-02       1.225455575517e+03 
       1.732215026153e-02       1.224600537890e+03 
       1.745657941882e-02       1.223673514938e+03 
       1.759105535276e-02       1.222674536042e+03 
       1.772557874289e-02       1.221605441113e+03 
       1.786015029098e-02       1.220466813445e+03 
       1.799477072128e-02       1.219260602602e+03 
       1.812944078076e-02       1.217987365355e+03 
       1.826416123941e-02       1.216648601000e+03 
       1.839893289046e-02       1.215243896904e+03 
       1.853375655078e-02       1.213778210008e+03 
       1.866863306108e-02       1.212248160577e+03 
       1.880356328635e-02       1.210657013314e+03 
       1.893854811616e-02       1.209005616905e+03 
       1.907358846503e-02       1.207295486226e+03 
       1.920868527284e-02       1.205526391397e+03 
       1.934383950519e-02       1.203700110512e+03 
       1.947905215389e-02       1.201817567504e+03 
       1.961432423733e-02       1.199880247349e+03 
       1.974965680097e-02       1.197889139029e+03 
       1.988505091781e-02       1.195844296608e+03 
       2.002050768889e-02       1.193747230838e+03 
       2.015602824378e-02       1.191598729961e+03 
       2.029161374112e-02       1.189400893418e+03 
       2.042726536918e-02       1.187153373971e+03 
       2.056298434642e-02       1.184857012091e+03 
       2.069877192205e-02       1.182512983684e+03 
       2.083462937669e-02       1.180121689014e+03 
       2.097055802296e-02       1.177687786754e+03 
       2.110655920616e-02       1.175207405582e+03 
       2.124263430489e-02       1.172682238466e+03 
       2.137878473182e-02       1.170115653145e+03 
       2.151501193431e-02       1.167504882336e+03 
       2.165131739525e-02       1.164854818627e+03 
       2.178770263376e-02       1.162163166759e+03 
       2.192416920596e-02       1.159434685397e+03 
       2.206071870586e-02       1.156663444726e+03 
       2.219735276612e-02       1.153855933089e+03 
       2.233407305896e-02       1.151013770360e+03 
       2.247088129702e-02       1.148132772276e+03 
       2.260777923431e-02       1.145217590312e+03 
       2.274476866714e-02       1.142266564080e+03 
       2.288185143508e-02       1.139282903491e+03 
       2.301902942201e-02       1.136265840771e+03 
       2.315630455713e-02       1.133217074539e+03 
       2.329367881602e-02       1.130136344828e+03 
       2.343115422179e-02       1.127025601240e+03 
       2.356873284616e-02       1.123884652397e+03 
       2.370641681068e-02       1.120713374617e+03 
       2.384420828792e-02       1.117515479414e+03 
       2.398210950273e-02       1.114289544073e+03 
       2.412012273352e-02       1.111036084493e+03 
       2.425825031358e-02       1.107756334853e+03 
       2.439649463248e-02       1.104452653872e+03 
       2.453485813745e-02       1.101123060785e+03 
       2.467334333486e-02       1.097769537382e+03 
       2.481195279172e-02       1.094392213982e+03 
       2.495068913721e-02       1.090993233928e+03 
       2.508955506433e-02       1.087571241303e+03 
       2.522855333152e-02       1.084127441009e+03 
       2.536768676437e-02       1.080663311131e+03 
       2.550695825738e-02       1.077179259996e+03 
       2.564637077582e-02       1.073676996495e+03 
       2.578592735753e-02       1.070154299486e+03 
       2.592563111496e-02       1.066615295567e+03 
       2.606548523709e-02       1.063055084229e+03 
       2.620549299156e-02       1.059480684464e+03 
       2.634565772678e-02       1.055889409690e+03 
       2.648598287415e-02       1.052282049377e+03 
       2.662647195038e-02       1.048659740127e+03 
       2.676712855980e-02       1.045022213822e+03 
       2.690795639684e-02       1.041370940453e+03 
       2.704895924859e-02       1.037705564231e+03 
       2.719014099736e-02       1.034029135358e+03 
       2.733150562342e-02       1.030340004174e+03 
       2.747305720782e-02       1.026635853793e+03 
       2.761479993526e-02       1.022922577352e+03 
       2.775673809712e-02       1.019198966115e+03 
       2.789887609459e-02       1.015464168253e+03 
       2.804121844184e-02       1.011718022227e+03 
       2.818376976944e-02       1.007959712794e+03 
       2.832653482774e-02       1.004199409014e+03 
       2.846951849055e-02       1.000427115013e+03 
       2.861272575880e-02       9.966495845339e+02 
       2.875616176442e-02       9.928611627919e+02 
       2.889983177437e-02       9.890675832052e+02 
       2.904374119478e-02       9.852646535651e+02 
       2.918789557527e-02       9.814570515249e+02 
       2.933230061344e-02       9.776404907971e+02 
       2.947696215952e-02       9.738244115414e+02 
       2.962188622121e-02       9.700004655769e+02 
       2.976707896872e-02       9.661700792189e+02 
       2.991254673998e-02       9.623375952200e+02 
       3.005829604607e-02       9.585008424416e+02 
       3.020433357690e-02       9.546577276735e+02 
       3.035066620708e-02       9.508137503970e+02 
       3.049730100201e-02       9.469667182747e+02 
       3.064424522432e-02       9.431159207383e+02 
       3.079150634043e-02       9.392648138797e+02 
       3.093909202753e-02       9.354115451724e+02 
       3.108701018077e-02       9.315563952659e+02 
       3.123526892072e-02       9.276994122339e+02 
       3.138387660131e-02       9.238412248192e+02 
       3.153284181789e-02       9.199844030196e+02 
       3.168217341587e-02       9.161262674973e+02 
       3.183188049955e-02       9.122675131506e+02 
       3.198197244143e-02       9.084099042767e+02 
       3.213245889198e-02       9.045506608207e+02 
       3.228334978974e-02       9.006962504804e+02 
       3.243465537201e-02       8.968394040973e+02 
       3.258638618587e-02       8.929851983680e+02 
       3.273855309991e-02       8.891332138180e+02 
       3.289116731631e-02       8.852798987941e+02 
       3.304424038368e-02       8.814286800390e+02 
       3.319778421033e-02       8.775825557633e+02 
       3.335181107837e-02       8.737370924080e+02 
       3.350633365831e-02       8.698969530471e+02 
       3.366136502453e-02       8.660558764969e+02 
       3.381691867143e-02       8.622194128381e+02 
       3.397300853041e-02       8.583874524916e+02 
       3.412964898777e-02       8.545592821556e+02 
       3.428685490339e-02       8.507294874801e+02 
       3.444464163055e-02       8.469079506691e+02 
       3.460302503664e-02       8.430910408050e+02 
       3.476202152506e-02       8.392750343642e+02 
       3.492164805820e-02       8.354642728812e+02 
       3.508192218178e-02       8.316583420336e+02 
       3.524286205037e-02       8.278559847581e+02 
       3.540448645449e-02       8.240569043396e+02 
       3.556681484902e-02       8.202633590632e+02 
       3.572986738339e-02       8.164795780818e+02 
       3.589366493340e-02       8.126942430546e+02 
       3.605822913485e-02       8.089129353293e+02 
       3.622358241922e-02       8.051423511088e+02 
       3.638974805139e-02       8.013735044487e+02 
       3.655675016957e-02       7.976084505869e+02 
       3.672461382778e-02       7.938486826411e+02 
       3.689336504073e-02       7.900961256911e+02 
       3.706303083167e-02       7.863494135306e+02 
       3.723363928308e-02       7.826064101790e+02 
       3.740521959063e-02       7.788682393354e+02 
       3.757780212063e-02       7.751343469067e+02 
       3.775141847115e-02       7.714088473766e+02 
       3.792610153719e-02       7.676858988786e+02 
       3.810188558017e-02       7.639680371441e+02 
       3.827880630213e-02       7.602565624587e+02 
       3.845690092497e-02       7.565497633220e+02 
       3.863620827524e-02       7.528473708054e+02 
       3.881676887478e-02       7.491516118306e+02 
       3.899862503789e-02       7.454592095078e+02 
       3.918182097550e-02       7.417718764190e+02 
       3.936640290690e-02       7.380888108088e+02 
       3.955241917984e-02       7.344110770021e+02 
       3.973992039963e-02       7.307396209100e+02 
       3.992895956804e-02       7.270697604180e+02 
       4.011959223310e-02       7.234062404794e+02 
       4.031187665054e-02       7.197463970473e+02 
       4.050587395816e-02       7.160865033980e+02 
       4.070164836445e-02       7.124346097125e+02 
       4.089926735252e-02       7.087870186895e+02 
       4.109880190129e-02       7.051394069736e+02 
       4.130032672540e-02       7.014961113732e+02 
       4.150392053578e-02       6.978540568315e+02 
       4.170966632324e-02       6.942203859271e+02 
       4.191765166724e-02       6.905841913154e+02 
       4.212796907282e-02       6.869512833340e+02 
       4.234071633855e-02       6.833209935887e+02 
       4.255599695916e-02       6.796928813143e+02 
       4.277392056667e-02       6.760602197589e+02 
       4.299460341451e-02       6.724339826558e+02 
       4.321816890966e-02       6.688061105552e+02 
       4.344474819864e-02       6.651776899972e+02 
       4.367448081386e-02       6.615496429117e+02 
       4.390751538791e-02       6.579173662662e+02 
       4.414401044431e-02       6.542869401363e+02 
       4.438413527473e-02       6.506521995281e+02 
       4.462807091402e-02       6.470158354176e+02 
       4.487601122628e-02       6.433769857273e+02 
       4.512816411722e-02       6.397329227180e+02 
       4.538475289044e-02       6.360809415412e+02 
       4.564601776852e-02       6.324273292480e+02 
       4.591221760276e-02       6.287671323693e+02 
       4.618363180011e-02       6.250985812722e+02 
       4.646056250037e-02       6.214196934993e+02 
       4.674333704292e-02       6.177336260517e+02 
       4.703231076955e-02       6.140359611574e+02 
       4.732787021830e-02       6.103269708419e+02 
       4.763043677427e-02       6.066042281968e+02 
       4.794047085603e-02       6.028664309358e+02 
       4.825847673212e-02       5.991136309586e+02 
       4.858500808172e-02       5.953422704503e+02 
       4.892067443761e-02       5.915520711654e+02 
       4.926614867919e-02       5.877382121657e+02 
       4.962217578095e-02       5.839008599305e+02 
       4.998958306763e-02       5.800360371430e+02 
       5.036929228636e-02       5.761427238591e+02 
       5.076233387896e-02       5.722158893126e+02 
       5.116986393123e-02       5.682539930540e+02 
       5.159318439358e-02       5.642494530357e+02 
       5.203376731819e-02       5.602024468596e+02 
       5.249328404876e-02       5.561057888189e+02 
       5.297364054341e-02       5.519519537472e+02 
       5.347702032185e-02       5.477350776969e+02 
       5.400593692094e-02       5.434476499232e+02 
       5.456329823656e-02       5.390800432055e+02 
       5.515248573757e-02       5.346224781574e+02 
       5.577745226463e-02       5.300559294545e+02 
       5.644284294715e-02       5.253710346669e+02 
       5.715414459413e-02       5.205409337093e+02 
       5.791786950706e-02       5.155425049467e+02 
       5.874177950641e-02       5.103413858792e+02 
       5.963515398492e-02       5.048965900634e+02 
       6.060909989126e-02       4.991518258684e+02 
       6.167688778558e-02       4.930360065968e+02 
       6.285426972403e-02       4.864521164942e+02 
       6.415968143061e-02       4.792677397247e+02 
       6.561414133275e-02       4.713195200836e+02 
