# dimensionless total lensed [l(l+1)/2pi] C_l's
# for l=2 to 2500, i.e. number of multipoles equal to 2499
#
# -> if you prefer output in CAMB/HealPix/LensPix units/order, set 'format' to 'camb' in input file
# -> if you don't want to see such a header, set 'headers' to 'no' in input file
# -> for CMB lensing (phi), these are C_l^phi-phi for the lensing potential.
#    Remember the conversion factors:
#    C_l^dd (deflection) = l(l+1) C_l^phi-phi
#    C_l^gg (shear/convergence) = 1/4 (l(l+1))^2 C_l^phi-phi
#
# 1:l     2:TT                     3:EE                     4:TE                     5:BB                     6:phiphi                 7:TPhi                   8:Ephi               
    2       1.368257625129e-10       4.941733538805e-15       3.765440992268e-13       1.917119885528e-19       8.047559503581e-09       4.496291658680e-10      -1.996606022608e-12 
    3       1.295977749332e-10       7.151103727913e-15       4.449539655011e-13       3.835191027873e-19       4.961576812018e-09       3.184552120651e-10      -1.622114738262e-12 
    4       1.225914191407e-10       7.039710101858e-15       4.345169097184e-13       6.394079414284e-19       3.442800887818e-09       2.408563378652e-10      -1.166783078970e-12 
    5       1.172582947312e-10       5.385776518098e-15       3.850219242224e-13       9.594999554509e-19       2.562140867282e-09       1.900042124069e-10      -7.490624175945e-13 
    6       1.135205705331e-10       3.398240630667e-15       3.211799277615e-13       1.343942450369e-18       1.995628897356e-09       1.542968767671e-10      -4.078426197013e-13 
    7       1.110399483631e-10       1.898417663770e-15       2.585494754625e-13       1.792905774688e-18       1.606228770057e-09       1.280409846882e-10      -1.565664948125e-13 
    8       1.095748783061e-10       1.092024180006e-15       2.052596138337e-13       2.306580131599e-18       1.324752278174e-09       1.081399724791e-10       6.520788837558e-15 
    9       1.088745455920e-10       7.816047505941e-16       1.648851148759e-13       2.885172104836e-18       1.113344581202e-09       9.270794002262e-11       9.276730312685e-14 
   10       1.087067456076e-10       6.799207159088e-16       1.380441218321e-13       3.528900996698e-18       9.499181404519e-10       8.047222667516e-11       1.193079616011e-13 
   11       1.089919392448e-10       6.065800546928e-16       1.233038375604e-13       4.237995080119e-18       8.015577470404e-10       7.103033554538e-11       1.056769253632e-13 
   12       1.096293069524e-10       5.189659335045e-16       1.180859392217e-13       5.012687867287e-18       6.992052058037e-10       6.259008417559e-11       7.030371541609e-14 
   13       1.104762238538e-10       4.456130940017e-16       1.195992480587e-13       5.853214494575e-18       6.152654778900e-10       5.579464188829e-11       2.907110517893e-14 
   14       1.115888060075e-10       4.139540510015e-16       1.252567053220e-13       6.759808317668e-18       5.455086278004e-10       5.001775286977e-11      -7.400461960465e-15 
   15       1.128477961362e-10       4.220567375962e-16       1.328791768239e-13       7.732697801945e-18       4.868547022968e-10       4.505211820756e-11      -3.279365330639e-14 
   16       1.142436700250e-10       4.504671140475e-16       1.409882770780e-13       8.772103781672e-18       4.370383329160e-10       4.081948074159e-11      -4.503401297898e-14 
   17       1.157569128918e-10       4.846377230983e-16       1.488105907095e-13       9.878237147891e-18       3.943508344184e-10       3.716561003124e-11      -4.553385505573e-14 
   18       1.173675457220e-10       5.252573339103e-16       1.561026089757e-13       1.105129682640e-17       3.573415554879e-10       3.396091384693e-11      -3.788569174656e-14 
   19       1.190897202570e-10       5.813239623669e-16       1.630230028169e-13       1.229146935514e-17       3.254108044477e-10       3.115550913385e-11      -2.584535033778e-14 
   20       1.208898361066e-10       6.631494116591e-16       1.698805393198e-13       1.359892601652e-17       2.973188216055e-10       2.865184917659e-11      -1.385969131183e-14 
   21       1.227581676685e-10       7.718081748280e-16       1.770037055158e-13       1.497382540032e-17       2.726168821161e-10       2.642776987455e-11      -4.460051844904e-15 
   22       1.246654493400e-10       9.043022613872e-16       1.846961992828e-13       1.641631027046e-17       2.507065516102e-10       2.444963275779e-11       5.878740010806e-16 
   23       1.266283363298e-10       1.058254572987e-15       1.929441815601e-13       1.792651181500e-17       2.312813146906e-10       2.269173137047e-11       1.251635314301e-15 
   24       1.286550245413e-10       1.231325169174e-15       2.015629551374e-13       1.950454645998e-17       2.138869706351e-10       2.110952989452e-11      -1.575453745483e-15 
   25       1.307363365663e-10       1.424196129983e-15       2.102726136351e-13       2.115052217998e-17       1.983149480366e-10       1.968626071840e-11      -6.449655069189e-15 
   26       1.328460167750e-10       1.638049452425e-15       2.187022708714e-13       2.286453455586e-17       1.842794522610e-10       1.840012947194e-11      -1.155896019323e-14 
   27       1.349953593945e-10       1.871872309361e-15       2.264783190574e-13       2.464667303839e-17       1.716092381834e-10       1.723876716083e-11      -1.567558954662e-14 
   28       1.371962849953e-10       2.124165332464e-15       2.332251523407e-13       2.649701840638e-17       1.600830494552e-10       1.618413275616e-11      -1.781950901767e-14 
   29       1.394531069582e-10       2.396041570465e-15       2.387798299822e-13       2.841565351061e-17       1.496400883328e-10       1.522804728574e-11      -1.793758883992e-14 
   30       1.417538266117e-10       2.689661840673e-15       2.430480156356e-13       3.040265477764e-17       1.401662018103e-10       1.435494910254e-11      -1.636875219836e-14 
   31       1.440764788653e-10       3.007388938683e-15       2.459708866443e-13       3.245809269789e-17       1.314657050020e-10       1.354220742273e-11      -1.362275068159e-14 
   32       1.464269401582e-10       3.351061454044e-15       2.476179653838e-13       3.458204630198e-17       1.234923371552e-10       1.278818670153e-11      -1.036558736707e-14 
   33       1.488128013744e-10       3.722471759805e-15       2.481350325365e-13       3.677459422650e-17       1.161885381310e-10       1.209328690664e-11      -7.454787780839e-15 
   34       1.512343510936e-10       4.123283769988e-15       2.476801903154e-13       3.903581369456e-17       1.094506610148e-10       1.145354430545e-11      -5.727250742850e-15 
   35       1.536913661062e-10       4.554065051192e-15       2.462706615637e-13       4.136578935947e-17       1.032431888371e-10       1.086579890656e-11      -5.196460066870e-15 
   36       1.561769336520e-10       5.014896216527e-15       2.438838249366e-13       4.376460816001e-17       9.751522767462e-11       1.032345880039e-11      -5.571047418311e-15 
   37       1.586804236791e-10       5.505811937083e-15       2.404793246338e-13       4.623235765915e-17       9.219098410704e-11       9.817469459453e-12      -6.498556517763e-15 
   38       1.612072008651e-10       6.027503391813e-15       2.359373580320e-13       4.876912690528e-17       8.725608778681e-11       9.345943424777e-12      -7.702915754383e-15 
   39       1.637643026228e-10       6.580835745812e-15       2.300978855782e-13       5.137500658324e-17       8.269438014742e-11       8.907171381319e-12      -8.883131090619e-15 
   40       1.663545332909e-10       7.166658657141e-15       2.227748838792e-13       5.405008934096e-17       7.846168095279e-11       8.496742806661e-12      -9.671026182290e-15 
   41       1.689772923501e-10       7.785763830248e-15       2.137962770646e-13       5.679446710679e-17       7.450104401802e-11       8.109213256498e-12      -9.738825390641e-15 
   42       1.716325664234e-10       8.438743783189e-15       2.031435937457e-13       5.960822094389e-17       7.080036255968e-11       7.744324510980e-12      -9.174166766211e-15 
   43       1.743174084443e-10       9.126085196061e-15       1.908548120260e-13       6.249142862632e-17       6.734940960963e-11       7.402413335758e-12      -8.220066309541e-15 
   44       1.770243353862e-10       9.848202354106e-15       1.769876795088e-13       6.544416768954e-17       6.412255983671e-11       7.082581161569e-12      -7.177055509249e-15 
   45       1.797450130800e-10       1.060546691243e-14       1.616025925807e-13       6.846650950739e-17       6.108784175144e-11       6.783192469991e-12      -6.338560464482e-15 
   46       1.824835705102e-10       1.139831719006e-14       1.447025160224e-13       7.155849889442e-17       5.824020385072e-11       6.503793890376e-12      -5.765828303340e-15 
   47       1.852465829668e-10       1.222717477335e-14       1.262769890798e-13       7.472016877880e-17       5.557611310699e-11       6.243591073282e-12      -5.451612470341e-15 
   48       1.880391694041e-10       1.309241161631e-14       1.063188544324e-13       7.795154568466e-17       5.308352801825e-11       6.000827639732e-12      -5.381979102548e-15 
   49       1.908648262562e-10       1.399434800012e-14       8.482431782318e-14       8.125264959783e-17       5.074126722297e-11       5.772715399057e-12      -5.535854070987e-15 
   50       1.937253939885e-10       1.493325076564e-14       6.178605048686e-14       8.462348892380e-17       4.852533884048e-11       5.556196216857e-12      -5.881321475218e-15 
   51       1.966213315931e-10       1.590933217936e-14       3.717015087517e-14       8.806404405966e-17       4.643141869421e-11       5.350633311254e-12      -6.364385509205e-15 
   52       1.995512293433e-10       1.692274723252e-14       1.093303252493e-14       9.157427913090e-17       4.445738216025e-11       5.155729855838e-12      -6.916375164296e-15 
   53       2.025115264285e-10       1.797359136165e-14      -1.697242671663e-14       9.515414615289e-17       4.259658010035e-11       4.970731259036e-12      -7.456334704596e-15 
   54       2.054963510165e-10       1.906189842097e-14      -4.659715246051e-14       9.880358466565e-17       4.083753504038e-11       4.794394518427e-12      -7.890417835586e-15 
   55       2.084997569158e-10       2.018765587707e-14      -7.798768246903e-14       1.025225244224e-16       3.916740872458e-11       4.625391115782e-12      -8.137230923463e-15 
   56       2.115234506290e-10       2.135085945851e-14      -1.111585963759e-13       1.063108950738e-16       3.758410954881e-11       4.463703114487e-12      -8.212623130637e-15 
   57       2.145707037225e-10       2.255146853079e-14      -1.461137059347e-13       1.101686182500e-16       3.608666070644e-11       4.309520204366e-12      -8.164898808940e-15 
   58       2.176440592934e-10       2.378938873635e-14      -1.828538535615e-13       1.140956044764e-16       3.467153886280e-11       4.162823092133e-12      -8.051110273108e-15 
   59       2.207452654065e-10       2.506447063795e-14      -2.213768505294e-13       1.180917529277e-16       3.333251727046e-11       4.023369746907e-12      -7.937462971382e-15 
   60       2.238752085305e-10       2.637650836200e-14      -2.616774151625e-13       1.221569511817e-16       3.206050888438e-11       3.890681645722e-12      -7.899720656113e-15 
   61       2.270343291841e-10       2.772524080774e-14      -3.037480126236e-13       1.262910893356e-16       3.084607043410e-11       3.764201791124e-12      -8.004167592023e-15 
   62       2.302241284809e-10       2.911035866112e-14      -3.475817343702e-13       1.304941066160e-16       2.968792636561e-11       3.643841327931e-12      -8.244585046389e-15 
   63       2.334458831659e-10       3.053149655502e-14      -3.931699582893e-13       1.347659548415e-16       2.858608850223e-11       3.529531771265e-12      -8.591783098490e-15 
   64       2.367001429985e-10       3.198822939244e-14      -4.405014715956e-13       1.391065851888e-16       2.753929290050e-11       3.421055921402e-12      -9.011587759233e-15 
   65       2.399866794894e-10       3.348007107123e-14      -4.895624376331e-13       1.435159484022e-16       2.654492739556e-11       3.318039559482e-12      -9.464629231259e-15 
   66       2.433044346373e-10       3.500647320891e-14      -5.403363626762e-13       1.479939950028e-16       2.559895914652e-11       3.219943143216e-12      -9.906130169053e-15 
   67       2.466514696663e-10       3.656682386743e-14      -5.928040627301e-13       1.525406754981e-16       2.469586218178e-11       3.126053502594e-12      -1.028569393906e-14 
   68       2.500258505211e-10       3.816041988162e-14      -6.469449361656e-13       1.571559560182e-16       2.383008230951e-11       3.035670225291e-12      -1.055848088668e-14 
   69       2.534286272955e-10       3.978638018419e-14      -7.027411552714e-13       1.618398684350e-16       2.300093849106e-11       2.948727230804e-12      -1.072184014812e-14 
   70       2.568613691973e-10       4.144371254656e-14      -7.601742682831e-13       1.665924708214e-16       2.220858901730e-11       2.865282804090e-12      -1.078575413313e-14 
   71       2.603252543899e-10       4.313133650583e-14      -8.192239688921e-13       1.714138335164e-16       2.145254947510e-11       2.785332784226e-12      -1.076218535169e-14 
   72       2.638210426865e-10       4.484808141449e-14      -8.798680964443e-13       1.763040397292e-16       2.073165961140e-11       2.708807239396e-12      -1.066515592749e-14 
   73       2.673490482460e-10       4.659268449011e-14      -9.420826361385e-13       1.812631861432e-16       2.004405019745e-11       2.635567141872e-12      -1.051082711138e-14 
   74       2.709091122671e-10       4.836378886498e-14      -1.005841719225e-12       1.862913835201e-16       1.938710989297e-11       2.565401043000e-12      -1.031757879491e-14 
   75       2.745005756834e-10       5.015994163579e-14      -1.071117623202e-12       1.913887573037e-16       1.875745211026e-11       2.498021748187e-12      -1.010608902377e-14 
   76       2.781226863839e-10       5.197969973746e-14      -1.137880088626e-12       1.965554464999e-16       1.815174972908e-11       2.433139616653e-12      -9.895357182519e-15 
   77       2.817759669632e-10       5.382197416486e-14      -1.206094125254e-12       2.017915987448e-16       1.756948821824e-11       2.370705242262e-12      -9.689760557828e-15 
   78       2.854610479381e-10       5.568574526983e-14      -1.275721804343e-12       2.070973754304e-16       1.701065669038e-11       2.310705191437e-12      -9.489770971085e-15 
   79       2.891782372513e-10       5.756996076223e-14      -1.346722892956e-12       2.124729539083e-16       1.647490949799e-11       2.253087578943e-12      -9.295798110289e-15 
   80       2.929275018767e-10       5.947353597059e-14      -1.419054840151e-12       2.179185280589e-16       1.596155089358e-11       2.197760314128e-12      -9.108185865215e-15 
   81       2.967084494249e-10       6.139535410279e-14      -1.492672763161e-12       2.234343088598e-16       1.546951968978e-11       2.144589347155e-12      -8.927208662599e-15 
   82       3.005203097478e-10       6.333426650684e-14      -1.567529433582e-12       2.290205249543e-16       1.499737391953e-11       2.093396915246e-12      -8.753067801307e-15 
   83       3.043619165443e-10       6.528909293150e-14      -1.643575263557e-12       2.346774232205e-16       1.454327549621e-11       2.043959788916e-12      -8.585887787515e-15 
   84       3.082321550481e-10       6.725857564059e-14      -1.720759826102e-12       2.404052571811e-16       1.410543344073e-11       1.996064187227e-12      -8.425788183838e-15 
   85       3.121314306592e-10       6.924123244464e-14      -1.799036735934e-12       2.462042487819e-16       1.368355158864e-11       1.949684825180e-12      -8.273120869971e-15 
   86       3.160604111864e-10       7.123547966967e-14      -1.878359556213e-12       2.520746212899e-16       1.327759387322e-11       1.904832471158e-12      -8.128265578439e-15 
   87       3.200195720058e-10       7.323967563012e-14      -1.958680348135e-12       2.580166112481e-16       1.288733957685e-11       1.861499127472e-12      -7.991555517413e-15 
   88       3.240091854994e-10       7.525212011392e-14      -2.039949682901e-12       2.640304688391e-16       1.251237569814e-11       1.819657229020e-12      -7.863274975024e-15 
   89       3.280293104933e-10       7.727105386768e-14      -2.122116653685e-12       2.701164582499e-16       1.215208931908e-11       1.779258841943e-12      -7.743656923682e-15 
   90       3.320797816965e-10       7.929465808175e-14      -2.205128887605e-12       2.762748580358e-16       1.180565997224e-11       1.740234862283e-12      -7.632880624395e-15 
   91       3.361601991392e-10       8.132105387540e-14      -2.288932557688e-12       2.825059614852e-16       1.147205200785e-11       1.702494214644e-12      -7.531069231090e-15 
   92       3.402699176115e-10       8.334830178192e-14      -2.373472394841e-12       2.888100769836e-16       1.115000696101e-11       1.665923050846e-12      -7.438287394924e-15 
   93       3.444082797195e-10       8.537446797535e-14      -2.458691790151e-12       2.951875314884e-16       1.083834004473e-11       1.630413022968e-12      -7.354448389916e-15 
   94       3.485753780899e-10       8.739783546283e-14      -2.544533093372e-12       3.016386807585e-16       1.053689721743e-11       1.595952707206e-12      -7.279024714944e-15 
   95       3.527713888072e-10       8.941672385140e-14      -2.630937381669e-12       3.081639013439e-16       1.024572861588e-11       1.562548512547e-12      -7.211289334360e-15 
   96       3.569963308896e-10       9.142942583256e-14      -2.717844386318e-12       3.147635880143e-16       9.964793843064e-12       1.530196434704e-12      -7.150398689565e-15 
   97       3.612500590717e-10       9.343420758349e-14      -2.805192505915e-12       3.214381541658e-16       9.693958510033e-12       1.498881653866e-12      -7.095389061335e-15 
   98       3.655322565874e-10       9.542930916838e-14      -2.892918819587e-12       3.281880322282e-16       9.432990777733e-12       1.468578132460e-12      -7.045172932157e-15 
   99       3.698424279518e-10       9.741294493965e-14      -2.980959100195e-12       3.350136740721e-16       9.181557898850e-12       1.439248212907e-12      -6.998535348560e-15 
  100       3.741798917445e-10       9.938330393929e-14      -3.069247827550e-12       3.419155514155e-16       8.939222759650e-12       1.410842215381e-12      -6.954130283446e-15 
  101       3.785437733918e-10       1.013385503001e-13      -3.157718201615e-12       3.488941562313e-16       8.705440421813e-12       1.383298035564e-12      -6.910476998425e-15 
  102       3.829329979496e-10       1.032768236470e-13      -3.246302155721e-12       3.559500011539e-16       8.479554664277e-12       1.356540742401e-12      -6.865956406143e-15 
  103       3.873462828856e-10       1.051962394982e-13      -3.334930369766e-12       3.630836198866e-16       8.260794525072e-12       1.330482175866e-12      -6.818807432617e-15 
  104       3.917824072535e-10       1.070949277298e-13      -3.423533205290e-12       3.702955661929e-16       8.048447960348e-12       1.305041981818e-12      -6.767518663105e-15 
  105       3.962410761701e-10       1.089711530216e-13      -3.512043626065e-12       3.775864098399e-16       7.842416986579e-12       1.280214819117e-12      -6.712071367891e-15 
  106       4.007221602046e-10       1.108232115055e-13      -3.600394698495e-12       3.849567408629e-16       7.642731432081e-12       1.256011523580e-12      -6.652858391202e-15 
  107       4.052254252861e-10       1.126493949652e-13      -3.688518728045e-12       3.924071713191e-16       7.449377022896e-12       1.232438316929e-12      -6.590304559807e-15 
