# Matter power spectrum P(k) at redshift z=4.5
# for k=1.04488e-05 to 1003.78 h/Mpc,
# number of wavenumbers equal to 625
#    1:k (h/Mpc)              2:P (Mpc/h)^3        
       1.044883175527e-05       2.390766352519e+00 
       2.370050338713e-05       5.350475247957e+00 
       3.700063944182e-05       8.287462849525e+00 
       5.038711707899e-05       1.122156018647e+01 
       6.389846824781e-05       1.416628044071e+01 
       7.757424324409e-05       1.713303358439e+01 
       9.145538642786e-05       2.013239071821e+01 
       1.055846293703e-04       2.317464503178e+01 
       1.200069067373e-04       2.627012920146e+01 
       1.347698002505e-04       2.942943206048e+01 
       1.499240160634e-04       3.266356893332e+01 
       1.655239007843e-04       3.598413037284e+01 
       1.816280011095e-04       3.940342209365e+01 
       1.982996714877e-04       4.293460302304e+01 
       2.156077332810e-04       4.659182503117e+01 
       2.336271873434e-04       5.039037594792e+01 
       2.524399795515e-04       5.434682811745e+01 
       2.721358152929e-04       5.847918917457e+01 
       2.928130138504e-04       6.280705563356e+01 
       3.145793865680e-04       6.735176264550e+01 
       3.375531131145e-04       7.213652582279e+01 
       3.618635775668e-04       7.718656381619e+01 
       3.876521099662e-04       8.252919130265e+01 
       4.150725592880e-04       8.819386313103e+01 
       4.442916007502e-04       9.421214993640e+01 
       4.754886553233e-04       1.006176176758e+02 
       5.088552748300e-04       1.074455803915e+02 
       5.445938267077e-04       1.147326923045e+02 
       5.829153052047e-04       1.225163464149e+02 
       6.240361095991e-04       1.308338504775e+02 
       6.681736753439e-04       1.397213647876e+02 
       7.155409301449e-04       1.492126084416e+02 
       7.663396781176e-04       1.593373705906e+02 
       8.207531854004e-04       1.701199035994e+02 
       8.789384292238e-04       1.815773121110e+02 
       9.410186427090e-04       1.937180871152e+02 
       1.007076892125e-03       2.065409558018e+02 
       1.077151416773e-03       2.200341960171e+02 
       1.151233319192e-03       2.341755297420e+02 
       1.229266925659e-03       2.489326399315e+02 
       1.311152794062e-03       2.642642705812e+02 
       1.396753004406e-03       2.801217864981e+02 
       1.485898103579e-03       2.964510380779e+02 
       1.578394942106e-03       3.131943222841e+02 
       1.674034647550e-03       3.302922652180e+02 
       1.772600100510e-03       3.476855105151e+02 
       1.873872466169e-03       3.653161020610e+02 
       1.977636536206e-03       3.831285412771e+02 
       2.083684813396e-03       4.010705465665e+02 
       2.191820403523e-03       4.190934993037e+02 
       2.301858861427e-03       4.371521943200e+02 
       2.413629176451e-03       4.552063411126e+02 
       2.526974088426e-03       4.732193601438e+02 
       2.641749910640e-03       4.911583523893e+02 
       2.757826010760e-03       5.089941133512e+02 
       2.875084071783e-03       5.267007916359e+02 
       2.993417227104e-03       5.442557590692e+02 
       3.112729139196e-03       5.616392788161e+02 
       3.232933071076e-03       5.788342672543e+02 
       3.353950983664e-03       5.958260015226e+02 
       3.475712680051e-03       6.126018541988e+02 
       3.598155008691e-03       6.291511398801e+02 
       3.721221131280e-03       6.454647566447e+02 
       3.844859856692e-03       6.615351884111e+02 
       3.969025039506e-03       6.773560947873e+02 
       4.093675039900e-03       6.929223794004e+02 
       4.218772240649e-03       7.082300327406e+02 
       4.344282616503e-03       7.232758956273e+02 
       4.470175351099e-03       7.380575161279e+02 
       4.596422496654e-03       7.525735331839e+02 
       4.722998671932e-03       7.668227780974e+02 
       4.849880794303e-03       7.808051234096e+02 
       4.977047842055e-03       7.945207166290e+02 
       5.104480643516e-03       8.079699411736e+02 
       5.232161689861e-03       8.211540463839e+02 
       5.360074968836e-03       8.340740317373e+02 
       5.488205816956e-03       8.467315616448e+02 
       5.616540787985e-03       8.591285666531e+02 
       5.745067535796e-03       8.712669549980e+02 
       5.873774709920e-03       8.831489708491e+02 
       6.002651862290e-03       8.947770015405e+02 
       6.131689363893e-03       9.061533192898e+02 
       6.260878330180e-03       9.172809012734e+02 
       6.390210554214e-03       9.281623079119e+02 
       6.519678446704e-03       9.388001288948e+02 
       6.649274982110e-03       9.491975087058e+02 
       6.778993650176e-03       9.593571451571e+02 
       6.908828412258e-03       9.692820140792e+02 
       7.038773661946e-03       9.789753123376e+02 
       7.168824189491e-03       9.884401159737e+02 
       7.298975149639e-03       9.976788447080e+02 
       7.429222032517e-03       1.006694926441e+03 
       7.559560637226e-03       1.015491261529e+03 
       7.689987047882e-03       1.024070587907e+03 
       7.820497611841e-03       1.032436541524e+03 
       7.951088919888e-03       1.040591984619e+03 
       8.081757788189e-03       1.048539577722e+03 
       8.212501241839e-03       1.056282225887e+03 
       8.343316499837e-03       1.063823141377e+03 
       8.474200961356e-03       1.071165150044e+03 
       8.605152193182e-03       1.078310774257e+03 
       8.736167918215e-03       1.085263335241e+03 
       8.867246004919e-03       1.092025647697e+03 
       8.998384457645e-03       1.098600045161e+03 
       9.129581407748e-03       1.104989453337e+03 
       9.260835105408e-03       1.111196588393e+03 
       9.392143912118e-03       1.117224192440e+03 
       9.523506293757e-03       1.123074700308e+03 
       9.654920814204e-03       1.128750653144e+03 
       9.786386129455e-03       1.134254899887e+03 
       9.917900982187e-03       1.139589627913e+03 
       1.004946419673e-02       1.144757255073e+03 
       1.018107467444e-02       1.149760322562e+03 
       1.031273138939e-02       1.154603480381e+03 
       1.044443338439e-02       1.159284873712e+03 
       1.057617976732e-02       1.163809023536e+03 
       1.070796970771e-02       1.168177798034e+03 
       1.083980243358e-02       1.172393415262e+03 
       1.097167722849e-02       1.176458276132e+03 
       1.110359342884e-02       1.180374435026e+03 
       1.123555042131e-02       1.184144079823e+03 
       1.136754764053e-02       1.187769676226e+03 
       1.149958456690e-02       1.191252467089e+03 
       1.163166072454e-02       1.194595224967e+03 
       1.176377567944e-02       1.197799726933e+03 
       1.189592903766e-02       1.200867638017e+03 
       1.202812044374e-02       1.203801681293e+03 
       1.216034957917e-02       1.206603195882e+03 
       1.229261616099e-02       1.209273679456e+03 
       1.242491994046e-02       1.211816262540e+03 
       1.255726070186e-02       1.214231863094e+03 
       1.268963826137e-02       1.216522350355e+03 
       1.282205246601e-02       1.218689248896e+03 
       1.295450319265e-02       1.220735139216e+03 
       1.308699034716e-02       1.222661372866e+03 
       1.321951386351e-02       1.224469683964e+03 
       1.335207370303e-02       1.226161599353e+03 
       1.348466985372e-02       1.227738858215e+03 
       1.361730232952e-02       1.229203760368e+03 
       1.374997116980e-02       1.230557753074e+03 
       1.388267643869e-02       1.231801247120e+03 
       1.401541822467e-02       1.232937802042e+03 
       1.414819664003e-02       1.233967833034e+03 
       1.428101182047e-02       1.234893084817e+03 
       1.441386392472e-02       1.235715175883e+03 
       1.454675313417e-02       1.236435890944e+03 
       1.467967965257e-02       1.237056014311e+03 
       1.481264370573e-02       1.237577918589e+03 
       1.494564554128e-02       1.238002496966e+03 
       1.507868542845e-02       1.238331471348e+03 
       1.521176365788e-02       1.238566579023e+03 
       1.534488054146e-02       1.238708698469e+03 
       1.547803641216e-02       1.238759659010e+03 
       1.561123162399e-02       1.238721025073e+03 
       1.574446655185e-02       1.238594150514e+03 
       1.587774159149e-02       1.238380024532e+03 
       1.601105715947e-02       1.238080472431e+03 
       1.614441369315e-02       1.237696592059e+03 
       1.627781165070e-02       1.237229964797e+03 
       1.641125151109e-02       1.236681436275e+03 
       1.654473377420e-02       1.236052822858e+03 
       1.667825896081e-02       1.235345287050e+03 
       1.681182761276e-02       1.234560061357e+03 
       1.694544029298e-02       1.233698290296e+03 
       1.707909758569e-02       1.232762185794e+03 
       1.721280009649e-02       1.231752036289e+03 
       1.734654845251e-02       1.230669165017e+03 
       1.748034330264e-02       1.229513943124e+03 
       1.761418531768e-02       1.228289500754e+03 
       1.774807519058e-02       1.226995836889e+03 
       1.788201363662e-02       1.225633935686e+03 
       1.801600139373e-02       1.224205451766e+03 
       1.815003922268e-02       1.222712326626e+03 
       1.828412790742e-02       1.221154323376e+03 
       1.841826825532e-02       1.219532570564e+03 
       1.855246109753e-02       1.217848693774e+03 
       1.868670728928e-02       1.216103952569e+03 
       1.882100771024e-02       1.214299728429e+03 
       1.895536326489e-02       1.212436356735e+03 
       1.908977488287e-02       1.210514880430e+03 
       1.922424351942e-02       1.208535535834e+03 
       1.935877015575e-02       1.206501384306e+03 
       1.949335579952e-02       1.204413035880e+03 
       1.962800148524e-02       1.202271637376e+03 
       1.976270827478e-02       1.200075443106e+03 
       1.989747725784e-02       1.197828587204e+03 
       2.003230955243e-02       1.195532951258e+03 
       2.016720630544e-02       1.193184845487e+03 
       2.030216869316e-02       1.190788118779e+03 
       2.043719792181e-02       1.188343940320e+03 
       2.057229522817e-02       1.185852547772e+03 
       2.070746188016e-02       1.183316082659e+03 
       2.084269917746e-02       1.180735660361e+03 
       2.097800845215e-02       1.178110390808e+03 
       2.111339106936e-02       1.175441346320e+03 
       2.124884842801e-02       1.172730602736e+03 
       2.138438196145e-02       1.169977478638e+03 
       2.151999313823e-02       1.167184254282e+03 
       2.165568346284e-02       1.164352540038e+03 
       2.179145447651e-02       1.161482299988e+03 
       2.192730775798e-02       1.158572784038e+03 
       2.206324492433e-02       1.155625676546e+03 
       2.219926763189e-02       1.152645395464e+03 
       2.233537757705e-02       1.149628080341e+03 
       2.247157649720e-02       1.146576784451e+03 
       2.260786617167e-02       1.143492152072e+03 
       2.274424842271e-02       1.140373934882e+03 
       2.288072511644e-02       1.137221457174e+03 
       2.301729816394e-02       1.134043546786e+03 
       2.315396952224e-02       1.130831460288e+03 
       2.329074119549e-02       1.127590905672e+03 
       2.342761523601e-02       1.124322033424e+03 
       2.356459374551e-02       1.121024790483e+03 
       2.370167887627e-02       1.117699951361e+03 
       2.383887283236e-02       1.114348657308e+03 
       2.397617787093e-02       1.110972023111e+03 
       2.411359630352e-02       1.107568866608e+03 
       2.425113049742e-02       1.104143780379e+03 
       2.438878287708e-02       1.100692817365e+03 
       2.452655592550e-02       1.097220879664e+03 
       2.466445218581e-02       1.093725103656e+03 
       2.480247426271e-02       1.090207960000e+03 
       2.494062482411e-02       1.086670716948e+03 
       2.507890660277e-02       1.083112186061e+03 
       2.521732239798e-02       1.079534897391e+03 
       2.535587507727e-02       1.075939213273e+03 
       2.549456757826e-02       1.072322565981e+03 
       2.563340291050e-02       1.068690453091e+03 
       2.577238415739e-02       1.065042092188e+03 
       2.591151447816e-02       1.061375175856e+03 
       2.605079710994e-02       1.057695962583e+03 
       2.619023536984e-02       1.053998501171e+03 
       2.632983265720e-02       1.050286442770e+03 
       2.646959245579e-02       1.046560376778e+03 
       2.660951833619e-02       1.042821722116e+03 
       2.674961395820e-02       1.039071248028e+03 
       2.688988307334e-02       1.035306278677e+03 
       2.703032952745e-02       1.031530736872e+03 
       2.717095726336e-02       1.027740007007e+03 
       2.731177032368e-02       1.023942422725e+03 
       2.745277285365e-02       1.020133142531e+03 
       2.759396910411e-02       1.016313432131e+03 
       2.773536343464e-02       1.012485540407e+03 
       2.787696031666e-02       1.008648196491e+03 
       2.801876433680e-02       1.004804590777e+03 
       2.816078020030e-02       1.000949000096e+03 
       2.830301273458e-02       9.970872162723e+02 
       2.844546689290e-02       9.932174027999e+02 
       2.858814775820e-02       9.893406054498e+02 
       2.873106054704e-02       9.854614363027e+02 
       2.887421061373e-02       9.815732238971e+02 
       2.901760345461e-02       9.776800924583e+02 
       2.916124471244e-02       9.737840401859e+02 
       2.930514018105e-02       9.698805334427e+02 
       2.944929581010e-02       9.659731998679e+02 
       2.959371771002e-02       9.620623973281e+02 
       2.973841215725e-02       9.581530555431e+02 
       2.988338559952e-02       9.542357974272e+02 
       3.002864466151e-02       9.503144825691e+02 
       3.017419615062e-02       9.463921228717e+02 
       3.032004706304e-02       9.424669077874e+02 
       3.046620459002e-02       9.385436014341e+02 
       3.061267612446e-02       9.346159809065e+02 
       3.075946926772e-02       9.306876419705e+02 
       3.090659183674e-02       9.267612094150e+02 
       3.105405187148e-02       9.228288439090e+02 
       3.120185764264e-02       9.189010509893e+02 
       3.135001765972e-02       9.149727223579e+02 
       3.149854067949e-02       9.110436537308e+02 
       3.164743571476e-02       9.071167394257e+02 
       3.179671204354e-02       9.031913191157e+02 
       3.194637921868e-02       8.992632135394e+02 
       3.209644707788e-02       8.953416657067e+02 
       3.224692575418e-02       8.914193101185e+02 
       3.239782568693e-02       8.874990393374e+02 
       3.254915763327e-02       8.835812197129e+02 
       3.270093268012e-02       8.796656636579e+02 
       3.285316225681e-02       8.757536046751e+02 
       3.300585814822e-02       8.718432232368e+02 
       3.315903250865e-02       8.679377024040e+02 
       3.331269787625e-02       8.640358398711e+02 
       3.346686718828e-02       8.601378847044e+02 
       3.362155379701e-02       8.562401914429e+02 
       3.377677148656e-02       8.523488893235e+02 
       3.393253449042e-02       8.484635421811e+02 
       3.408885751000e-02       8.445804095516e+02 
       3.424575573410e-02       8.407029119985e+02 
       3.440324485938e-02       8.368284484569e+02 
       3.456134111187e-02       8.329577471612e+02 
       3.472006126976e-02       8.290951182379e+02 
       3.487942268727e-02       8.252341486610e+02 
       3.503944331988e-02       8.213805333215e+02 
       3.520014175098e-02       8.175307078085e+02 
       3.536153721995e-02       8.136867889774e+02 
       3.552364965184e-02       8.098496002830e+02 
       3.568649968873e-02       8.060158103142e+02 
       3.585010872292e-02       8.021894733060e+02 
       3.601449893200e-02       7.983693518653e+02 
       3.617969331604e-02       7.945515658674e+02 
       3.634571573695e-02       7.907427635649e+02 
       3.651259096025e-02       7.869388867991e+02 
       3.668034469929e-02       7.831387616107e+02 
       3.684900366238e-02       7.793496844186e+02 
       3.701859560262e-02       7.755625670811e+02 
       3.718914937112e-02       7.717830870589e+02 
       3.736069497344e-02       7.680085843361e+02 
       3.753326362977e-02       7.642382499472e+02 
       3.770688783903e-02       7.604773878012e+02 
       3.788160144729e-02       7.567221263278e+02 
       3.805743972067e-02       7.529707981155e+02 
       3.823443942334e-02       7.492282064092e+02 
       3.841263890081e-02       7.454900586661e+02 
       3.859207816913e-02       7.417570645613e+02 
       3.877279901036e-02       7.380294670758e+02 
       3.895484507493e-02       7.343073322696e+02 
       3.913826199150e-02       7.305919501894e+02 
       3.932309748489e-02       7.268826886033e+02 
       3.950940150289e-02       7.231747585329e+02 
       3.969722635278e-02       7.194806256918e+02 
       3.988662684827e-02       7.157804167341e+02 
       4.007766046814e-02       7.120914974699e+02 
       4.027038752731e-02       7.084090693701e+02 
       4.046487136196e-02       7.047287539208e+02 
       4.066117852964e-02       7.010518059256e+02 
       4.085937902624e-02       6.973778113833e+02 
       4.105954652121e-02       6.937121043311e+02 
       4.126175861318e-02       6.900498880888e+02 
       4.146609710785e-02       6.863895857995e+02 
       4.167264832062e-02       6.827270839194e+02 
       4.188150340674e-02       6.790756787570e+02 
       4.209275872172e-02       6.754267510205e+02 
       4.230651621559e-02       6.717766697851e+02 
       4.252288386480e-02       6.681274329420e+02 
       4.274197614603e-02       6.644816869259e+02 
       4.296391455689e-02       6.608368791387e+02 
       4.318882818904e-02       6.571922582193e+02 
       4.341685436030e-02       6.535499737760e+02 
       4.364813931283e-02       6.499039973231e+02 
       4.388283898583e-02       6.462596537754e+02 
       4.412111987252e-02       6.426122729554e+02 
       4.436315997224e-02       6.389618312594e+02 
       4.460914985056e-02       6.353116267009e+02 
       4.485929382230e-02       6.316568166933e+02 
       4.511381127438e-02       6.279969269798e+02 
       4.537293814880e-02       6.243337843883e+02 
       4.563692860891e-02       6.206638131153e+02 
       4.590605691632e-02       6.169865685575e+02 
       4.618061955080e-02       6.133013182546e+02 
       4.646093761076e-02       6.096104092303e+02 
       4.674735953949e-02       6.059065308099e+02 
       4.704026423008e-02       6.021923583387e+02 
       4.734006457263e-02       5.984639609501e+02 
       4.764721151953e-02       5.947227312905e+02 
       4.796219875984e-02       5.909670738587e+02 
       4.828556811252e-02       5.871906602627e+02 
       4.861791577135e-02       5.834003172980e+02 
       4.895989956282e-02       5.795869846062e+02 
       4.931224741407e-02       5.757512385414e+02 
       4.967576727223e-02       5.718876252963e+02 
       5.005135877229e-02       5.679966798614e+02 
       5.044002702092e-02       5.640736567252e+02 
       5.084289895259e-02       5.601152587615e+02 
       5.126124282661e-02       5.561184203085e+02 
       5.169649157747e-02       5.520802947236e+02 
       5.215027091288e-02       5.479930713686e+02 
       5.262443328711e-02       5.438507003666e+02 
       5.312109917303e-02       5.396484666617e+02 
       5.364270743225e-02       5.353784787811e+02 
       5.419207705460e-02       5.310311201117e+02 
       5.477248312270e-02       5.265955430091e+02 
       5.538775056023e-02       5.220565485741e+02 
       5.604237002655e-02       5.174003009313e+02 
       5.674164115024e-02       5.126079932288e+02 
       5.749184894986e-02       5.076514861508e+02 
       5.830047932380e-02       5.025001928793e+02 
       5.917647795634e-02       4.971125646083e+02 
       6.013055201632e-02       4.914397629415e+02 
       6.117550210346e-02       4.854083833760e+02 
       6.232654686408e-02       4.789299496421e+02 
       6.360155491032e-02       4.718813879786e+02 
       6.502101632521e-02       4.641046017246e+02 
