# Matter power spectrum P(k) at redshift z=4
# for k=1.04488e-05 to 1003.78 h/Mpc,
# number of wavenumbers equal to 625
#    1:k (h/Mpc)              2:P (Mpc/h)^3        
       1.044883175527e-05       2.889821534332e+00 
       2.370050338713e-05       6.467347315171e+00 
       3.700063944182e-05       1.001740670686e+01 
       5.038711707899e-05       1.356396915724e+01 
       6.389846824781e-05       1.712336727399e+01 
       7.757424324409e-05       2.070939137862e+01 
       9.145538642786e-05       2.433481766756e+01 
       1.055846293703e-04       2.801208619825e+01 
       1.200069067373e-04       3.175368455769e+01 
       1.347698002505e-04       3.557240965447e+01 
       1.499240160634e-04       3.948157351434e+01 
       1.655239007843e-04       4.349518307662e+01 
       1.816280011095e-04       4.762810916904e+01 
       1.982996714877e-04       5.189625330359e+01 
       2.156077332810e-04       5.631671634498e+01 
       2.336271873434e-04       6.090797140708e+01 
       2.524399795515e-04       6.569004301378e+01 
       2.721358152929e-04       7.068468930540e+01 
       2.928130138504e-04       7.591558726366e+01 
       3.145793865680e-04       8.140851354570e+01 
       3.375531131145e-04       8.719151542448e+01 
       3.618635775668e-04       9.329505872323e+01 
       3.876521099662e-04       9.975213965797e+01 
       4.150725592880e-04       1.065983378199e+02 
       4.442916007502e-04       1.138717863277e+02 
       4.754886553233e-04       1.216130258382e+02 
       5.088552748300e-04       1.298647057860e+02 
       5.445938267077e-04       1.386710915370e+02 
       5.829153052047e-04       1.480773384172e+02 
       6.240361095991e-04       1.581284975157e+02 
       6.681736753439e-04       1.688682348446e+02 
       7.155409301449e-04       1.803372724283e+02 
       7.663396781176e-04       1.925715954697e+02 
       8.207531854004e-04       2.056005194144e+02 
       8.789384292238e-04       2.194447539200e+02 
       9.410186427090e-04       2.341146441611e+02 
       1.007076892125e-03       2.496087943533e+02 
       1.077151416773e-03       2.659132510113e+02 
       1.151233319192e-03       2.830013831779e+02 
       1.229266925659e-03       3.008345093259e+02 
       1.311152794062e-03       3.193632207537e+02 
       1.396753004406e-03       3.385292517595e+02 
       1.485898103579e-03       3.582677083649e+02 
       1.578394942106e-03       3.785094083082e+02 
       1.674034647550e-03       3.991831226821e+02 
       1.772600100510e-03       4.202175866302e+02 
       1.873872466169e-03       4.415431481167e+02 
       1.977636536206e-03       4.630930336630e+02 
       2.083684813396e-03       4.848042675746e+02 
       2.191820403523e-03       5.066182234872e+02 
       2.301858861427e-03       5.284803411154e+02 
       2.413629176451e-03       5.503419662861e+02 
       2.526974088426e-03       5.721589147272e+02 
       2.641749910640e-03       5.938914492090e+02 
       2.757826010760e-03       6.155043069012e+02 
       2.875084071783e-03       6.369662561732e+02 
       2.993417227104e-03       6.582499856725e+02 
       3.112729139196e-03       6.793316325292e+02 
       3.232933071076e-03       7.001905118388e+02 
       3.353950983664e-03       7.208087486114e+02 
       3.475712680051e-03       7.411709559340e+02 
       3.598155008691e-03       7.612640536823e+02 
       3.721221131280e-03       7.810768453737e+02 
       3.844859856692e-03       8.006000343356e+02 
       3.969025039506e-03       8.198257385446e+02 
       4.093675039900e-03       8.387475838849e+02 
       4.218772240649e-03       8.573605199572e+02 
       4.344282616503e-03       8.756605335210e+02 
       4.470175351099e-03       8.936444737603e+02 
       4.596422496654e-03       9.113105121248e+02 
       4.722998671932e-03       9.286570506425e+02 
       4.849880794303e-03       9.456837468566e+02 
       4.977047842055e-03       9.623905868354e+02 
       5.104480643516e-03       9.787778401609e+02 
       5.232161689861e-03       9.948468279352e+02 
       5.360074968836e-03       1.010598575417e+03 
       5.488205816956e-03       1.026034925321e+03 
       5.616540787985e-03       1.041158056411e+03 
       5.745067535796e-03       1.055970134427e+03 
       5.873774709920e-03       1.070473744162e+03 
       6.002651862290e-03       1.084671653248e+03 
       6.131689363893e-03       1.098566496020e+03 
       6.260878330180e-03       1.112161765119e+03 
       6.390210554214e-03       1.125460450948e+03 
       6.519678446704e-03       1.138465591625e+03 
       6.649274982110e-03       1.151180875659e+03 
       6.778993650176e-03       1.163609485033e+03 
       6.908828412258e-03       1.175754899561e+03 
       7.038773661946e-03       1.187620929349e+03 
       7.168824189491e-03       1.199211035729e+03 
       7.298975149639e-03       1.210528335953e+03 
       7.429222032517e-03       1.221576907806e+03 
       7.559560637226e-03       1.232360126875e+03 
       7.689987047882e-03       1.242881182329e+03 
       7.820497611841e-03       1.253144359754e+03 
       7.951088919888e-03       1.263153011079e+03 
       8.081757788189e-03       1.272910248520e+03 
       8.212501241839e-03       1.282419490948e+03 
       8.343316499837e-03       1.291684533698e+03 
       8.474200961356e-03       1.300708712908e+03 
       8.605152193182e-03       1.309495008190e+03 
       8.736167918215e-03       1.318047370724e+03 
       8.867246004919e-03       1.326369142344e+03 
       8.998384457645e-03       1.334463087414e+03 
       9.129581407748e-03       1.342332689104e+03 
       9.260835105408e-03       1.349981181687e+03 
       9.392143912118e-03       1.357411833639e+03 
       9.523506293757e-03       1.364627543048e+03 
       9.654920814204e-03       1.371631381132e+03 
       9.786386129455e-03       1.378428451904e+03 
       9.917900982187e-03       1.385018614248e+03 
       1.004946419673e-02       1.391405399547e+03 
       1.018107467444e-02       1.397592315030e+03 
       1.031273138939e-02       1.403582307807e+03 
       1.044443338439e-02       1.409377912319e+03 
       1.057617976732e-02       1.414982258105e+03 
       1.070796970771e-02       1.420397698674e+03 
       1.083980243358e-02       1.425626923249e+03 
       1.097167722849e-02       1.430672833951e+03 
       1.110359342884e-02       1.435537910726e+03 
       1.123555042131e-02       1.440224798805e+03 
       1.136754764053e-02       1.444736483412e+03 
       1.149958456690e-02       1.449074464349e+03 
       1.163166072454e-02       1.453242102799e+03 
       1.176377567944e-02       1.457241548849e+03 
       1.189592903766e-02       1.461074816534e+03 
       1.202812044374e-02       1.464745207864e+03 
       1.216034957917e-02       1.468254340737e+03 
       1.229261616099e-02       1.471604025672e+03 
       1.242491994046e-02       1.474798060227e+03 
       1.255726070186e-02       1.477837550115e+03 
       1.268963826137e-02       1.480724758524e+03 
       1.282205246601e-02       1.483461528808e+03 
       1.295450319265e-02       1.486050989523e+03 
       1.308699034716e-02       1.488494773243e+03 
       1.321951386351e-02       1.490794978779e+03 
       1.335207370303e-02       1.492953449351e+03 
       1.348466985372e-02       1.494972287186e+03 
       1.361730232952e-02       1.496854277616e+03 
       1.374997116980e-02       1.498601166548e+03 
       1.388267643869e-02       1.500213463558e+03 
       1.401541822467e-02       1.501695444107e+03 
       1.414819664003e-02       1.503047577082e+03 
       1.428101182047e-02       1.504271964471e+03 
       1.441386392472e-02       1.505370551882e+03 
       1.454675313417e-02       1.506345527255e+03 
       1.467967965257e-02       1.507197797590e+03 
       1.481264370573e-02       1.507930241337e+03 
       1.494564554128e-02       1.508543909894e+03 
       1.507868542845e-02       1.509040883243e+03 
       1.521176365788e-02       1.509423252914e+03 
       1.534488054146e-02       1.509692063690e+03 
       1.547803641216e-02       1.509849522839e+03 
       1.561123162399e-02       1.509897513930e+03 
       1.574446655185e-02       1.509837662884e+03 
       1.587774159149e-02       1.509671157609e+03 
       1.601105715947e-02       1.509400200987e+03 
       1.614441369315e-02       1.509026111782e+03 
       1.627781165070e-02       1.508550800282e+03 
       1.641125151109e-02       1.507975277103e+03 
       1.654473377420e-02       1.507301742756e+03 
       1.667825896081e-02       1.506531599153e+03 
       1.681182761276e-02       1.505666334407e+03 
       1.694544029298e-02       1.504707332064e+03 
       1.707909758569e-02       1.503657275158e+03 
       1.721280009649e-02       1.502516509235e+03 
       1.734654845251e-02       1.501286632337e+03 
       1.748034330264e-02       1.499968090710e+03 
       1.761418531768e-02       1.498564695460e+03 
       1.774807519058e-02       1.497076433749e+03 
       1.788201363662e-02       1.495504499732e+03 
       1.801600139373e-02       1.493850904547e+03 
       1.815003922268e-02       1.492118011302e+03 
       1.828412790742e-02       1.490305521692e+03 
       1.841826825532e-02       1.488414810953e+03 
       1.855246109753e-02       1.486447850551e+03 
       1.868670728928e-02       1.484406175188e+03 
       1.882100771024e-02       1.482291460884e+03 
       1.895536326489e-02       1.480104109690e+03 
       1.908977488287e-02       1.477845388848e+03 
       1.922424351942e-02       1.475515576258e+03 
       1.935877015575e-02       1.473118398594e+03 
       1.949335579952e-02       1.470654594750e+03 
       1.962800148524e-02       1.468125551559e+03 
       1.976270827478e-02       1.465529127064e+03 
       1.989747725784e-02       1.462870355801e+03 
       2.003230955243e-02       1.460151527084e+03 
       2.016720630544e-02       1.457368117468e+03 
       2.030216869316e-02       1.454524812854e+03 
       2.043719792181e-02       1.451623027664e+03 
       2.057229522817e-02       1.448663034792e+03 
       2.070746188016e-02       1.445647436969e+03 
       2.084269917746e-02       1.442577577123e+03 
       2.097800845215e-02       1.439452350290e+03 
       2.111339106936e-02       1.436273049144e+03 
       2.124884842801e-02       1.433042190659e+03 
       2.138438196145e-02       1.429758926575e+03 
       2.151999313823e-02       1.426426020557e+03 
       2.165568346284e-02       1.423045423068e+03 
       2.179145447651e-02       1.419617072147e+03 
       2.192730775798e-02       1.416140031378e+03 
       2.206324492433e-02       1.412616340865e+03 
       2.219926763189e-02       1.409051383765e+03 
       2.233537757705e-02       1.405440421795e+03 
       2.247157649720e-02       1.401787171700e+03 
       2.260786617167e-02       1.398092404266e+03 
       2.274424842271e-02       1.394355800948e+03 
       2.288072511644e-02       1.390576518556e+03 
       2.301729816394e-02       1.386765339713e+03 
       2.315396952224e-02       1.382911558709e+03 
       2.329074119549e-02       1.379022145312e+03 
       2.342761523601e-02       1.375097271779e+03 
       2.356459374551e-02       1.371136864328e+03 
       2.370167887627e-02       1.367141861402e+03 
       2.383887283236e-02       1.363113652385e+03 
       2.397617787093e-02       1.359053597191e+03 
       2.411359630352e-02       1.354960241027e+03 
       2.425113049742e-02       1.350839202537e+03 
       2.438878287708e-02       1.346685651433e+03 
       2.452655592550e-02       1.342505584863e+03 
       2.466445218581e-02       1.338295495905e+03 
       2.480247426271e-02       1.334058415433e+03 
       2.494062482411e-02       1.329795896697e+03 
       2.507890660277e-02       1.325506492729e+03 
       2.521732239798e-02       1.321193297378e+03 
       2.535587507727e-02       1.316856765863e+03 
       2.549456757826e-02       1.312493767339e+03 
       2.563340291050e-02       1.308111034433e+03 
       2.577238415739e-02       1.303707620814e+03 
       2.591151447816e-02       1.299280714574e+03 
       2.605079710994e-02       1.294837982192e+03 
       2.619023536984e-02       1.290372155416e+03 
       2.632983265720e-02       1.285887713945e+03 
       2.646959245579e-02       1.281385393026e+03 
       2.660951833619e-02       1.276866939627e+03 
       2.674961395820e-02       1.272333318245e+03 
       2.688988307334e-02       1.267781259353e+03 
       2.703032952745e-02       1.263215581071e+03 
       2.717095726336e-02       1.258630645970e+03 
       2.731177032368e-02       1.254036669580e+03 
       2.745277285365e-02       1.249427743253e+03 
       2.759396910411e-02       1.244805431472e+03 
       2.773536343464e-02       1.240172497975e+03 
       2.787696031666e-02       1.235527400721e+03 
       2.801876433680e-02       1.230874059073e+03 
       2.816078020030e-02       1.226205478144e+03 
       2.830301273458e-02       1.221528763587e+03 
       2.844546689290e-02       1.216841679207e+03 
       2.858814775820e-02       1.212145522130e+03 
       2.873106054704e-02       1.207445943951e+03 
       2.887421061373e-02       1.202734779949e+03 
       2.901760345461e-02       1.198017111057e+03 
       2.916124471244e-02       1.193295373276e+03 
       2.930514018105e-02       1.188564038735e+03 
       2.944929581010e-02       1.183827553251e+03 
       2.959371771002e-02       1.179086363625e+03 
       2.973841215725e-02       1.174346519309e+03 
       2.988338559952e-02       1.169596530718e+03 
       3.002864466151e-02       1.164841150566e+03 
       3.017419615062e-02       1.160084060794e+03 
       3.032004706304e-02       1.155323053351e+03 
       3.046620459002e-02       1.150563972020e+03 
       3.061267612446e-02       1.145799192656e+03 
       3.075946926772e-02       1.141033135617e+03 
       3.090659183674e-02       1.136269023842e+03 
       3.105405187148e-02       1.131497236139e+03 
       3.120185764264e-02       1.126730673269e+03 
       3.135001765972e-02       1.121963066537e+03 
       3.149854067949e-02       1.117194170248e+03 
       3.164743571476e-02       1.112427537515e+03 
       3.179671204354e-02       1.107662359220e+03 
       3.194637921868e-02       1.102893517686e+03 
       3.209644707788e-02       1.098132350036e+03 
       3.224692575418e-02       1.093369825648e+03 
       3.239782568693e-02       1.088609494895e+03 
       3.254915763327e-02       1.083851807596e+03 
       3.270093268012e-02       1.079096538680e+03 
       3.285316225681e-02       1.074345204927e+03 
       3.300585814822e-02       1.069595573171e+03 
       3.315903250865e-02       1.064851551609e+03 
       3.331269787625e-02       1.060111670130e+03 
       3.346686718828e-02       1.055376231611e+03 
       3.362155379701e-02       1.050640767279e+03 
       3.377677148656e-02       1.045912794755e+03 
       3.393253449042e-02       1.041191791684e+03 
       3.408885751000e-02       1.036473165324e+03 
       3.424575573410e-02       1.031761109288e+03 
       3.440324485938e-02       1.027052435439e+03 
       3.456134111187e-02       1.022348036370e+03 
       3.472006126976e-02       1.017653209339e+03 
       3.487942268727e-02       1.012960078751e+03 
       3.503944331988e-02       1.008275636290e+03 
       3.520014175098e-02       1.003595503383e+03 
       3.536153721995e-02       9.989222787919e+02 
       3.552364965184e-02       9.942569727093e+02 
       3.568649968873e-02       9.895954777509e+02 
       3.585010872292e-02       9.849428042052e+02 
       3.601449893200e-02       9.802974161041e+02 
       3.617969331604e-02       9.756545453452e+02 
       3.634571573695e-02       9.710223503837e+02 
       3.651259096025e-02       9.663958460802e+02 
       3.668034469929e-02       9.617735898284e+02 
       3.684900366238e-02       9.571645372854e+02 
       3.701859560262e-02       9.525575149409e+02 
       3.718914937112e-02       9.479594945217e+02 
       3.736069497344e-02       9.433672100702e+02 
       3.753326362977e-02       9.387796574547e+02 
       3.770688783903e-02       9.342033511467e+02 
       3.788160144729e-02       9.296335255305e+02 
       3.805743972067e-02       9.250681238235e+02 
       3.823443942334e-02       9.205130442093e+02 
       3.841263890081e-02       9.159630071124e+02 
       3.859207816913e-02       9.114188769180e+02 
       3.877279901036e-02       9.068809603481e+02 
       3.895484507493e-02       9.023493117779e+02 
       3.913826199150e-02       8.978255111752e+02 
       3.932309748489e-02       8.933088024220e+02 
       3.950940150289e-02       8.887932783354e+02 
       3.969722635278e-02       8.842942552865e+02 
       3.988662684827e-02       8.797873043358e+02 
       4.007766046814e-02       8.752937774347e+02 
       4.027038752731e-02       8.708077735667e+02 
       4.046487136196e-02       8.663239078324e+02 
       4.066117852964e-02       8.618437263572e+02 
       4.085937902624e-02       8.573667244047e+02 
       4.105954652121e-02       8.528994619484e+02 
       4.126175861318e-02       8.484360595345e+02 
       4.146609710785e-02       8.439745696386e+02 
       4.167264832062e-02       8.395099521784e+02 
       4.188150340674e-02       8.350585681427e+02 
       4.209275872172e-02       8.306098385181e+02 
       4.230651621559e-02       8.261593107970e+02 
       4.252288386480e-02       8.217094594399e+02 
       4.274197614603e-02       8.172635605673e+02 
       4.296391455689e-02       8.128184983566e+02 
       4.318882818904e-02       8.083733726014e+02 
       4.341685436030e-02       8.039308544439e+02 
       4.364813931283e-02       7.994835614691e+02 
       4.388283898583e-02       7.950380701404e+02 
       4.412111987252e-02       7.905886731212e+02 
       4.436315997224e-02       7.861353743319e+02 
       4.460914985056e-02       7.816822675341e+02 
       4.485929382230e-02       7.772234326253e+02 
       4.511381127438e-02       7.727583257315e+02 
       4.537293814880e-02       7.682892364587e+02 
       4.563692860891e-02       7.638118092941e+02 
       4.590605691632e-02       7.593255202008e+02 
       4.618061955080e-02       7.548295217867e+02 
       4.646093761076e-02       7.503267365987e+02 
       4.674735953949e-02       7.458082111472e+02 
       4.704026423008e-02       7.412772709975e+02 
       4.734006457263e-02       7.367291068097e+02 
       4.764721151953e-02       7.321654787060e+02 
       4.796219875984e-02       7.275844459797e+02 
       4.828556811252e-02       7.229782377406e+02 
       4.861791577135e-02       7.183552887049e+02 
       4.895989956282e-02       7.137044641326e+02 
       4.931224741407e-02       7.090264958798e+02 
       4.967576727223e-02       7.043146686175e+02 
       5.005135877229e-02       6.995696553241e+02 
       5.044002702092e-02       6.947856311466e+02 
       5.084289895259e-02       6.899585391096e+02 
       5.126124282661e-02       6.850846119298e+02 
       5.169649157747e-02       6.801603706460e+02 
       5.215027091288e-02       6.751762087054e+02 
       5.262443328711e-02       6.701247134830e+02 
       5.312109917303e-02       6.650001242381e+02 
       5.364270743225e-02       6.597927904915e+02 
       5.419207705460e-02       6.544909761734e+02 
       5.477248312270e-02       6.490814222990e+02 
       5.538775056023e-02       6.435455828475e+02 
       5.604237002655e-02       6.378666357156e+02 
       5.674164115024e-02       6.320216673102e+02 
       5.749184894986e-02       6.259763100579e+02 
       5.830047932380e-02       6.196932318859e+02 
       5.917647795634e-02       6.131216035545e+02 
       6.013055201632e-02       6.062015678043e+02 
       6.117550210346e-02       5.988428963882e+02 
       6.232654686408e-02       5.909365235830e+02 
       6.360155491032e-02       5.823303740852e+02 
       6.502101632521e-02       5.728287685522e+02 
