# Matter power spectrum P(k) at redshift z=3.5
# for k=1.04488e-05 to 1003.78 h/Mpc,
# number of wavenumbers equal to 625
#    1:k (h/Mpc)              2:P (Mpc/h)^3        
       1.044883175527e-05       3.561344399292e+00 
       2.370050338713e-05       7.970196476431e+00 
       3.700063944182e-05       1.234519511619e+01 
       5.038711707899e-05       1.671587698974e+01 
       6.389846824781e-05       2.110236733202e+01 
       7.757424324409e-05       2.552165798998e+01 
       9.145538642786e-05       2.998949071335e+01 
       1.055846293703e-04       3.452119259058e+01 
       1.200069067373e-04       3.913214883746e+01 
       1.347698002505e-04       4.383812513858e+01 
       1.499240160634e-04       4.865552128822e+01 
       1.655239007843e-04       5.360159242089e+01 
       1.816280011095e-04       5.869465715919e+01 
       1.982996714877e-04       6.395430288619e+01 
       2.156077332810e-04       6.940159322720e+01 
       2.336271873434e-04       7.505928086942e+01 
       2.524399795515e-04       8.095202775605e+01 
       2.721358152929e-04       8.710662922273e+01 
       2.928130138504e-04       9.355224148013e+01 
       3.145793865680e-04       1.003206037120e+02 
       3.375531131145e-04       1.074462478517e+02 
       3.618635775668e-04       1.149666796827e+02 
       3.876521099662e-04       1.229225154950e+02 
       4.150725592880e-04       1.313575458470e+02 
       4.442916007502e-04       1.403186972749e+02 
       4.754886553233e-04       1.498558506790e+02 
       5.088552748300e-04       1.600214716080e+02 
       5.445938267077e-04       1.708700015380e+02 
       5.829153052047e-04       1.824569624483e+02 
       6.240361095991e-04       1.948377318007e+02 
       6.681736753439e-04       2.080659658113e+02 
       7.155409301449e-04       2.221916821701e+02 
       7.663396781176e-04       2.372590571265e+02 
       8.207531854004e-04       2.533040530150e+02 
       8.789384292238e-04       2.703520452368e+02 
       9.410186427090e-04       2.884156703873e+02 
       1.007076892125e-03       3.074931463205e+02 
       1.077151416773e-03       3.275672804744e+02 
       1.151233319192e-03       3.486053326938e+02 
       1.229266925659e-03       3.705597905172e+02 
       1.311152794062e-03       3.933699916655e+02 
       1.396753004406e-03       4.169644101957e+02 
       1.485898103579e-03       4.412633738885e+02 
       1.578394942106e-03       4.661819135693e+02 
       1.674034647550e-03       4.916324929920e+02 
       1.772600100510e-03       5.175274596549e+02 
       1.873872466169e-03       5.437810645192e+02 
       1.977636536206e-03       5.703110238859e+02 
       2.083684813396e-03       5.970396701420e+02 
       2.191820403523e-03       6.238946599415e+02 
       2.301858861427e-03       6.508086576361e+02 
       2.413629176451e-03       6.777216303798e+02 
       2.526974088426e-03       7.045790979788e+02 
       2.641749910640e-03       7.313321101800e+02 
       2.757826010760e-03       7.579372819264e+02 
       2.875084071783e-03       7.843561928272e+02 
       2.993417227104e-03       8.105552983294e+02 
       3.112729139196e-03       8.365052620711e+02 
       3.232933071076e-03       8.621806436136e+02 
       3.353950983664e-03       8.875594336828e+02 
       3.475712680051e-03       9.126226633687e+02 
       3.598155008691e-03       9.373541934570e+02 
       3.721221131280e-03       9.617402055565e+02 
       3.844859856692e-03       9.857692341496e+02 
       3.969025039506e-03       1.009431576499e+03 
       4.093675039900e-03       1.032719405638e+03 
       4.218772240649e-03       1.055626539682e+03 
       4.344282616503e-03       1.078148078892e+03 
       4.470175351099e-03       1.100280183066e+03 
       4.596422496654e-03       1.122020629674e+03 
       4.722998671932e-03       1.143367468694e+03 
       4.849880794303e-03       1.164320285170e+03 
       4.977047842055e-03       1.184879063620e+03 
       5.104480643516e-03       1.205044138214e+03 
       5.232161689861e-03       1.224817143104e+03 
       5.360074968836e-03       1.244199355546e+03 
       5.488205816956e-03       1.263193066347e+03 
       5.616540787985e-03       1.281800983739e+03 
       5.745067535796e-03       1.300025799527e+03 
       5.873774709920e-03       1.317870716590e+03 
       6.002651862290e-03       1.335339156153e+03 
       6.131689363893e-03       1.352434379967e+03 
       6.260878330180e-03       1.369160691686e+03 
       6.390210554214e-03       1.385521726501e+03 
       6.519678446704e-03       1.401521245424e+03 
       6.649274982110e-03       1.417163786108e+03 
       6.778993650176e-03       1.432453292490e+03 
       6.908828412258e-03       1.447394077224e+03 
       7.038773661946e-03       1.461990847749e+03 
       7.168824189491e-03       1.476247868707e+03 
       7.298975149639e-03       1.490168989103e+03 
       7.429222032517e-03       1.503759239060e+03 
       7.559560637226e-03       1.517022776252e+03 
       7.689987047882e-03       1.529963529699e+03 
       7.820497611841e-03       1.542586777961e+03 
       7.951088919888e-03       1.554896651849e+03 
       8.081757788189e-03       1.566896988015e+03 
       8.212501241839e-03       1.578592004863e+03 
       8.343316499837e-03       1.589986380644e+03 
       8.474200961356e-03       1.601084231053e+03 
       8.605152193182e-03       1.611889234978e+03 
       8.736167918215e-03       1.622406260478e+03 
       8.867246004919e-03       1.632639425945e+03 
       8.998384457645e-03       1.642592119669e+03 
       9.129581407748e-03       1.652268533926e+03 
       9.260835105408e-03       1.661673837106e+03 
       9.392143912118e-03       1.670812135592e+03 
       9.523506293757e-03       1.679684205586e+03 
       9.654920814204e-03       1.688295372041e+03 
       9.786386129455e-03       1.696649897194e+03 
       9.917900982187e-03       1.704750991346e+03 
       1.004946419673e-02       1.712602224065e+03 
       1.018107467444e-02       1.720207434520e+03 
       1.031273138939e-02       1.727570265575e+03 
       1.044443338439e-02       1.734693847901e+03 
       1.057617976732e-02       1.741582036029e+03 
       1.070796970771e-02       1.748237728265e+03 
       1.083980243358e-02       1.754664236071e+03 
       1.097167722849e-02       1.760865137576e+03 
       1.110359342884e-02       1.766843487462e+03 
       1.123555042131e-02       1.772602544491e+03 
       1.136754764053e-02       1.778145985922e+03 
       1.149958456690e-02       1.783475658553e+03 
       1.163166072454e-02       1.788595700843e+03 
       1.176377567944e-02       1.793508760630e+03 
       1.189592903766e-02       1.798217317320e+03 
       1.202812044374e-02       1.802725433975e+03 
       1.216034957917e-02       1.807035101302e+03 
       1.229261616099e-02       1.811148546752e+03 
       1.242491994046e-02       1.815070443844e+03 
       1.255726070186e-02       1.818802152814e+03 
       1.268963826137e-02       1.822346458948e+03 
       1.282205246601e-02       1.825705631492e+03 
       1.295450319265e-02       1.828883522713e+03 
       1.308699034716e-02       1.831882143211e+03 
       1.321951386351e-02       1.834704079026e+03 
       1.335207370303e-02       1.837351601737e+03 
       1.348466985372e-02       1.839827301727e+03 
       1.361730232952e-02       1.842134611292e+03 
       1.374997116980e-02       1.844275681082e+03 
       1.388267643869e-02       1.846251172090e+03 
       1.401541822467e-02       1.848066309157e+03 
       1.414819664003e-02       1.849721655731e+03 
       1.428101182047e-02       1.851219796314e+03 
       1.441386392472e-02       1.852563126981e+03 
       1.454675313417e-02       1.853754379068e+03 
       1.467967965257e-02       1.854794648799e+03 
       1.481264370573e-02       1.855687488862e+03 
       1.494564554128e-02       1.856434186203e+03 
       1.507868542845e-02       1.857037308732e+03 
       1.521176365788e-02       1.857499429663e+03 
       1.534488054146e-02       1.857821836191e+03 
       1.547803641216e-02       1.858007246892e+03 
       1.561123162399e-02       1.858057982791e+03 
       1.574446655185e-02       1.857976042440e+03 
       1.587774159149e-02       1.857762895907e+03 
       1.601105715947e-02       1.857421251545e+03 
       1.614441369315e-02       1.856952735383e+03 
       1.627781165070e-02       1.856359697569e+03 
       1.641125151109e-02       1.855643384141e+03 
       1.654473377420e-02       1.854806504591e+03 
       1.667825896081e-02       1.853850785192e+03 
       1.681182761276e-02       1.852778058454e+03 
       1.694544029298e-02       1.851590027081e+03 
       1.707909758569e-02       1.850289994911e+03 
       1.721280009649e-02       1.848878386331e+03 
       1.734654845251e-02       1.847357169672e+03 
       1.748034330264e-02       1.845726893877e+03 
       1.761418531768e-02       1.843992249994e+03 
       1.774807519058e-02       1.842153222521e+03 
       1.788201363662e-02       1.840211280483e+03 
       1.801600139373e-02       1.838168899537e+03 
       1.815003922268e-02       1.836028987693e+03 
       1.828412790742e-02       1.833791178210e+03 
       1.841826825532e-02       1.831457163458e+03 
       1.855246109753e-02       1.829029369024e+03 
       1.868670728928e-02       1.826509684977e+03 
       1.882100771024e-02       1.823900172291e+03 
       1.895536326489e-02       1.821201325693e+03 
       1.908977488287e-02       1.818414707629e+03 
       1.922424351942e-02       1.815540657093e+03 
       1.935877015575e-02       1.812583760421e+03 
       1.949335579952e-02       1.809544929248e+03 
       1.962800148524e-02       1.806425868118e+03 
       1.976270827478e-02       1.803223943379e+03 
       1.989747725784e-02       1.799945349090e+03 
       2.003230955243e-02       1.796592905191e+03 
       2.016720630544e-02       1.793161044613e+03 
       2.030216869316e-02       1.789655533699e+03 
       2.043719792181e-02       1.786078114234e+03 
       2.057229522817e-02       1.782429121908e+03 
       2.070746188016e-02       1.778711763971e+03 
       2.084269917746e-02       1.774927690600e+03 
       2.097800845215e-02       1.771075542954e+03 
       2.111339106936e-02       1.767156914558e+03 
       2.124884842801e-02       1.763174900477e+03 
       2.138438196145e-02       1.759128466454e+03 
       2.151999313823e-02       1.755021005895e+03 
       2.165568346284e-02       1.750854922800e+03 
       2.179145447651e-02       1.746630143232e+03 
       2.192730775798e-02       1.742345515549e+03 
       2.206324492433e-02       1.738003551836e+03 
       2.219926763189e-02       1.733610877400e+03 
       2.233537757705e-02       1.729161663047e+03 
       2.247157649720e-02       1.724660483517e+03 
       2.260786617167e-02       1.720108286047e+03 
       2.274424842271e-02       1.715504689101e+03 
       2.288072511644e-02       1.710848647181e+03 
       2.301729816394e-02       1.706153428229e+03 
       2.315396952224e-02       1.701405869498e+03 
       2.329074119549e-02       1.696614543055e+03 
       2.342761523601e-02       1.691779656510e+03 
       2.356459374551e-02       1.686901129137e+03 
       2.370167887627e-02       1.681980115558e+03 
       2.383887283236e-02       1.677018316168e+03 
       2.397617787093e-02       1.672017420855e+03 
       2.411359630352e-02       1.666975621407e+03 
       2.425113049742e-02       1.661899845629e+03 
       2.438878287708e-02       1.656784147601e+03 
       2.452655592550e-02       1.651635909017e+03 
       2.466445218581e-02       1.646450805790e+03 
       2.480247426271e-02       1.641232569640e+03 
       2.494062482411e-02       1.635983119070e+03 
       2.507890660277e-02       1.630700674944e+03 
       2.521732239798e-02       1.625389030005e+03 
       2.535587507727e-02       1.620048747678e+03 
       2.549456757826e-02       1.614675985367e+03 
       2.563340291050e-02       1.609279019645e+03 
       2.577238415739e-02       1.603856690128e+03 
       2.591151447816e-02       1.598405528138e+03 
       2.605079710994e-02       1.592934967340e+03 
       2.619023536984e-02       1.587436067794e+03 
       2.632983265720e-02       1.581914338120e+03 
       2.646959245579e-02       1.576370681257e+03 
       2.660951833619e-02       1.570807244888e+03 
       2.674961395820e-02       1.565225217370e+03 
       2.688988307334e-02       1.559620574402e+03 
       2.703032952745e-02       1.553999239818e+03 
       2.717095726336e-02       1.548354278062e+03 
       2.731177032368e-02       1.542698254997e+03 
       2.745277285365e-02       1.537023901926e+03 
       2.759396910411e-02       1.531333138242e+03 
       2.773536343464e-02       1.525629369429e+03 
       2.787696031666e-02       1.519910693537e+03 
       2.801876433680e-02       1.514181930385e+03 
       2.816078020030e-02       1.508434477941e+03 
       2.830301273458e-02       1.502677068342e+03 
       2.844546689290e-02       1.496906953817e+03 
       2.858814775820e-02       1.491125731455e+03 
       2.873106054704e-02       1.485340346710e+03 
       2.887421061373e-02       1.479540750147e+03 
       2.901760345461e-02       1.473733212090e+03 
       2.916124471244e-02       1.467920699909e+03 
       2.930514018105e-02       1.462096436119e+03 
       2.944929581010e-02       1.456265878111e+03 
       2.959371771002e-02       1.450429575331e+03 
       2.973841215725e-02       1.444594967789e+03 
       2.988338559952e-02       1.438747914283e+03 
       3.002864466151e-02       1.432894282913e+03 
       3.017419615062e-02       1.427038579526e+03 
       3.032004706304e-02       1.421178095081e+03 
       3.046620459002e-02       1.415320014910e+03 
       3.061267612446e-02       1.409454956873e+03 
       3.075946926772e-02       1.403588369313e+03 
       3.090659183674e-02       1.397724217917e+03 
       3.105405187148e-02       1.391850643652e+03 
       3.120185764264e-02       1.385983545217e+03 
       3.135001765972e-02       1.380115189199e+03 
       3.149854067949e-02       1.374245279483e+03 
       3.164743571476e-02       1.368378186327e+03 
       3.179671204354e-02       1.362512907945e+03 
       3.194637921868e-02       1.356643159756e+03 
       3.209644707788e-02       1.350782882953e+03 
       3.224692575418e-02       1.344920967271e+03 
       3.239782568693e-02       1.339061781167e+03 
       3.254915763327e-02       1.333205875223e+03 
       3.270093268012e-02       1.327352973336e+03 
       3.285316225681e-02       1.321504940302e+03 
       3.300585814822e-02       1.315659032025e+03 
       3.315903250865e-02       1.309820050757e+03 
       3.331269787625e-02       1.303986190411e+03 
       3.346686718828e-02       1.298157821503e+03 
       3.362155379701e-02       1.292329447698e+03 
       3.377677148656e-02       1.286510316858e+03 
       3.393253449042e-02       1.280699786575e+03 
       3.408885751000e-02       1.274892204198e+03 
       3.424575573410e-02       1.269092727851e+03 
       3.440324485938e-02       1.263297436075e+03 
       3.456134111187e-02       1.257507423081e+03 
       3.472006126976e-02       1.251729216158e+03 
       3.487942268727e-02       1.245953124045e+03 
       3.503944331988e-02       1.240187733725e+03 
       3.520014175098e-02       1.234427672048e+03 
       3.536153721995e-02       1.228676131596e+03 
       3.552364965184e-02       1.222934354133e+03 
       3.568649968873e-02       1.217197286622e+03 
       3.585010872292e-02       1.211471095632e+03 
       3.601449893200e-02       1.205753888816e+03 
       3.617969331604e-02       1.200039805012e+03 
       3.634571573695e-02       1.194338874312e+03 
       3.651259096025e-02       1.188644966937e+03 
       3.668034469929e-02       1.182956308486e+03 
       3.684900366238e-02       1.177283915052e+03 
       3.701859560262e-02       1.171614044357e+03 
       3.718914937112e-02       1.165955265981e+03 
       3.736069497344e-02       1.160303568544e+03 
       3.753326362977e-02       1.154657718192e+03 
       3.770688783903e-02       1.149025729579e+03 
       3.788160144729e-02       1.143401733614e+03 
       3.805743972067e-02       1.137783205737e+03 
       3.823443942334e-02       1.132177400887e+03 
       3.841263890081e-02       1.126577826752e+03 
       3.859207816913e-02       1.120985546486e+03 
       3.877279901036e-02       1.115400934345e+03 
       3.895484507493e-02       1.109824065724e+03 
       3.913826199150e-02       1.104256869733e+03 
       3.932309748489e-02       1.098698434034e+03 
       3.950940150289e-02       1.093141487218e+03 
       3.969722635278e-02       1.087604863031e+03 
       3.988662684827e-02       1.082058522461e+03 
       4.007766046814e-02       1.076528722086e+03 
       4.027038752731e-02       1.071008210548e+03 
       4.046487136196e-02       1.065490360163e+03 
       4.066117852964e-02       1.059977076063e+03 
       4.085937902624e-02       1.054467737091e+03 
       4.105954652121e-02       1.048970407476e+03 
       4.126175861318e-02       1.043477863910e+03 
       4.146609710785e-02       1.037987702906e+03 
       4.167264832062e-02       1.032493732969e+03 
       4.188150340674e-02       1.027016070954e+03 
       4.209275872172e-02       1.021541705117e+03 
       4.230651621559e-02       1.016065162250e+03 
       4.252288386480e-02       1.010589482947e+03 
       4.274197614603e-02       1.005118694955e+03 
       4.296391455689e-02       9.996489691655e+02 
       4.318882818904e-02       9.941791897160e+02 
       4.341685436030e-02       9.887126449892e+02 
       4.364813931283e-02       9.832402542632e+02 
       4.388283898583e-02       9.777701022724e+02 
       4.412111987252e-02       9.722951695524e+02 
       4.436315997224e-02       9.668154556152e+02 
       4.460914985056e-02       9.613359946498e+02 
       4.485929382230e-02       9.558495022249e+02 
       4.511381127438e-02       9.503553095983e+02 
       4.537293814880e-02       9.448562248136e+02 
       4.563692860891e-02       9.393468974944e+02 
       4.590605691632e-02       9.338266624708e+02 
       4.618061955080e-02       9.282944879227e+02 
       4.646093761076e-02       9.227539602017e+02 
       4.674735953949e-02       9.171940699186e+02 
       4.704026423008e-02       9.116189002378e+02 
       4.734006457263e-02       9.060225294745e+02 
       4.764721151953e-02       9.004071205756e+02 
       4.796219875984e-02       8.947702895777e+02 
       4.828556811252e-02       8.891024667914e+02 
       4.861791577135e-02       8.834140238939e+02 
       4.895989956282e-02       8.776912715335e+02 
       4.931224741407e-02       8.719351085221e+02 
       4.967576727223e-02       8.661372645954e+02 
       5.005135877229e-02       8.602985661437e+02 
       5.044002702092e-02       8.544118601307e+02 
       5.084289895259e-02       8.484721436068e+02 
       5.126124282661e-02       8.424747872690e+02 
       5.169649157747e-02       8.364155105708e+02 
       5.215027091288e-02       8.302824963669e+02 
       5.262443328711e-02       8.240666298672e+02 
       5.312109917303e-02       8.177608297602e+02 
       5.364270743225e-02       8.113532116406e+02 
       5.419207705460e-02       8.048293555013e+02 
       5.477248312270e-02       7.981729366164e+02 
       5.538775056023e-02       7.913611437189e+02 
       5.604237002655e-02       7.843732821045e+02 
       5.674164115024e-02       7.771811600151e+02 
       5.749184894986e-02       7.697424809717e+02 
       5.830047932380e-02       7.620113317468e+02 
       5.917647795634e-02       7.539251780043e+02 
       6.013055201632e-02       7.454103712442e+02 
       6.117550210346e-02       7.363559499204e+02 
       6.232654686408e-02       7.266277750048e+02 
       6.360155491032e-02       7.160388606470e+02 
       6.502101632521e-02       7.043486333815e+02 
