# dimensionless total [l(l+1)/2pi] C_l's
# for l=2 to 3000, i.e. number of multipoles equal to 2999
#
# -> if you prefer output in CAMB/HealPix/LensPix units/order, set 'format' to 'camb' in input file
# -> if you don't want to see such a header, set 'headers' to 'no' in input file
# -> for CMB lensing (phi), these are C_l^phi-phi for the lensing potential.
#    Remember the conversion factors:
#    C_l^dd (deflection) = l(l+1) C_l^phi-phi
#    C_l^gg (shear/convergence) = 1/4 (l(l+1))^2 C_l^phi-phi
#
# 1:l     2:TT                     3:EE                     4:TE                     5:BB                     6:phiphi                 7:TPhi                   8:Ephi               
    2       1.368109564615e-10       4.941542552923e-15       3.764640426578e-13       0.000000000000e+00       8.052770167482e-09       4.496876070918e-10      -1.996177545568e-12 
    3       1.295829201447e-10       7.150002490721e-15       4.448374229991e-13       0.000000000000e+00       4.960886549111e-09       3.184712809747e-10      -1.621802415780e-12 
    4       1.225764889294e-10       7.037744029683e-15       4.344026275422e-13       0.000000000000e+00       3.441584127094e-09       2.408701765387e-10      -1.166496071037e-12 
    5       1.172429159014e-10       5.383217905546e-15       3.849169995552e-13       0.000000000000e+00       2.561200801825e-09       1.900211180955e-10      -7.487951571331e-13 
    6       1.135056058628e-10       3.395501018717e-15       3.210861644995e-13       0.000000000000e+00       1.995222553408e-09       1.543201325204e-10      -4.076096825288e-13 
    7       1.110244481066e-10       1.895716970018e-15       2.584682414391e-13       0.000000000000e+00       1.606030977252e-09       1.280627887501e-10      -1.563767343809e-13 
    8       1.095574190949e-10       1.089290857076e-15       2.051924539131e-13       0.000000000000e+00       1.324557311268e-09       1.081557788008e-10       6.661503653988e-15 
    9       1.088574683891e-10       7.785793015621e-16       1.648300051846e-13       0.000000000000e+00       1.113198647109e-09       9.272321211257e-11       9.285550279337e-14 
   10       1.086881295575e-10       6.763303521849e-16       1.380009391345e-13       0.000000000000e+00       9.498295999114e-10       8.049092890461e-11       1.193476336292e-13 
   11       1.089737048347e-10       6.022497680740e-16       1.232701635650e-13       0.000000000000e+00       8.015143230902e-10       7.104254411852e-11       1.056762861448e-13 
   12       1.096084084925e-10       5.138234476390e-16       1.180604885406e-13       0.000000000000e+00       6.991750098155e-10       6.260184135911e-11       7.029510828612e-14 
   13       1.104540952285e-10       4.396202634592e-16       1.195792883649e-13       0.000000000000e+00       6.152460157157e-10       5.580582140838e-11       2.906354893953e-14 
   14       1.115653740954e-10       4.070603206964e-16       1.252337510613e-13       0.000000000000e+00       5.454975180127e-10       5.002647507957e-11      -7.415073894206e-15 
   15       1.128238058303e-10       4.141795598278e-16       1.328562803118e-13       0.000000000000e+00       4.868501640517e-10       4.506813928138e-11      -3.280321032039e-14 
   16       1.142187474526e-10       4.415176047066e-16       1.409580932814e-13       0.000000000000e+00       4.370391412103e-10       4.083668546225e-11      -4.502966603257e-14 
   17       1.157295355709e-10       4.745478138490e-16       1.487797558897e-13       0.000000000000e+00       3.943560044007e-10       3.717812939459e-11      -4.550579106200e-14 
   18       1.173375212990e-10       5.139656785549e-16       1.560664022168e-13       0.000000000000e+00       3.573502732386e-10       3.397186457861e-11      -3.783682227911e-14 
   19       1.190577757942e-10       5.687646391403e-16       1.629781017802e-13       0.000000000000e+00       3.254223487206e-10       3.116861166580e-11      -2.578944534063e-14 
   20       1.208570818511e-10       6.492504644989e-16       1.698329344722e-13       0.000000000000e+00       2.973326583155e-10       2.866793739799e-11      -1.381693810137e-14 
   21       1.227245180890e-10       7.565010332744e-16       1.769607318966e-13       0.000000000000e+00       2.726325620897e-10       2.644441203680e-11      -4.439986745767e-15 
   22       1.246293330535e-10       8.875238943995e-16       1.846622577640e-13       0.000000000000e+00       2.507237107002e-10       2.446193519743e-11       5.928190361479e-16 
   23       1.265892812454e-10       1.039937364299e-15       1.929150572006e-13       0.000000000000e+00       2.312996449859e-10       2.269943996167e-11       1.254046175675e-15 
   24       1.286142319172e-10       1.211390484606e-15       2.015272590233e-13       0.000000000000e+00       2.139062293058e-10       2.111838043275e-11      -1.563572044823e-15 
   25       1.306939103561e-10       1.402545657438e-15       2.102348151626e-13       0.000000000000e+00       1.983349366924e-10       1.969815040624e-11      -6.424294539656e-15 
   26       1.328003664357e-10       1.614564498846e-15       2.186865084794e-13       0.000000000000e+00       1.843000163312e-10       1.841077207376e-11      -1.152645965295e-14 
   27       1.349458550143e-10       1.846436246133e-15       2.264964403230e-13       0.000000000000e+00       1.716302360116e-10       1.724624518343e-11      -1.564459845258e-14 
   28       1.371439735191e-10       2.096680774991e-15       2.332669363576e-13       0.000000000000e+00       1.601043482750e-10       1.619117282518e-11      -1.779792665578e-14 
   29       1.393990451006e-10       2.366467374457e-15       2.388286726470e-13       0.000000000000e+00       1.496615735131e-10       1.523702347574e-11      -1.793065314616e-14 
   30       1.416984497430e-10       2.658037249642e-15       2.430857699264e-13       0.000000000000e+00       1.401877858570e-10       1.436593678409e-11      -1.637763309830e-14 
   31       1.440195764631e-10       2.973811819530e-15       2.459807636107e-13       0.000000000000e+00       1.314873293147e-10       1.355302607400e-11      -1.364428248554e-14 
   32       1.463682701865e-10       3.315522247348e-15       2.475964015589e-13       0.000000000000e+00       1.235139478766e-10       1.279704449418e-11      -1.039538080250e-14 
   33       1.487523047129e-10       3.684773663197e-15       2.480984307089e-13       0.000000000000e+00       1.162100782183e-10       1.209981859907e-11      -7.488212069324e-15 
   34       1.511721117390e-10       4.083065482388e-15       2.476623661057e-13       0.000000000000e+00       1.094720718371e-10       1.145881035840e-11      -5.759698406105e-15 
   35       1.536272471285e-10       4.511061838186e-15       2.462948657940e-13       0.000000000000e+00       1.032644221925e-10       1.087090684805e-11      -5.224103976989e-15 
   36       1.561104193080e-10       4.969049015062e-15       2.439509558105e-13       0.000000000000e+00       9.753625112776e-11       1.032908095660e-11      -5.591318716711e-15 
   37       1.586106567107e-10       5.457259048304e-15       2.405688486148e-13       0.000000000000e+00       9.221178048231e-11       9.823805202709e-12      -6.510293035192e-15 
   38       1.611334139358e-10       5.976372763627e-15       2.360301755466e-13       0.000000000000e+00       8.727664357174e-11       9.352994316178e-12      -7.705730252775e-15 
   39       1.636859880778e-10       6.527171166509e-15       2.301844584252e-13       0.000000000000e+00       8.271468123924e-11       8.914799339698e-12      -8.877326995185e-15 
   40       1.662715134133e-10       7.110397433921e-15       2.228576956176e-13       0.000000000000e+00       7.848171119005e-11       8.504642333624e-12      -9.657732488175e-15 
   41       1.688897291199e-10       7.726741333579e-15       2.138889732109e-13       0.000000000000e+00       7.452078521266e-11       8.116939022921e-12      -9.719912881177e-15 
   42       1.715407548145e-10       8.376792666299e-15       2.032584724934e-13       0.000000000000e+00       7.081979996356e-11       7.751510720819e-12      -9.151403428536e-15 
   43       1.742217236180e-10       9.061068267197e-15       1.909984445100e-13       0.000000000000e+00       6.736853347388e-11       7.408860929200e-12      -8.194799271306e-15 
   44       1.769252392032e-10       9.780020222061e-15       1.771596086195e-13       0.000000000000e+00       6.414136544958e-11       7.088295582006e-12      -7.150090750763e-15 
   45       1.796430119329e-10       1.053405671218e-14       1.617960120595e-13       0.000000000000e+00       6.110632884130e-11       6.788371603972e-12      -6.310213058754e-15 
   46       1.823790093221e-10       1.132362026159e-14       1.449117789990e-13       0.000000000000e+00       5.825837393126e-11       6.508643470991e-12      -5.736562987571e-15 
   47       1.851395543612e-10       1.214912690469e-14       1.265001970806e-13       0.000000000000e+00       5.559396821263e-11       6.248264858388e-12      -5.422257412028e-15 
   48       1.879294649279e-10       1.301094180131e-14       1.065586058192e-13       0.000000000000e+00       5.310106992602e-11       6.005414451020e-12      -5.353779413081e-15 
   49       1.907518849753e-10       1.390937712529e-14       8.508849724617e-14       0.000000000000e+00       5.075849660893e-11       5.777225407824e-12      -5.510527960153e-15 
   50       1.936083611698e-10       1.484469601530e-14       6.208657697595e-14       0.000000000000e+00       4.854225510756e-11       5.560566122485e-12      -5.860931459868e-15 
   51       1.964994889703e-10       1.581713059020e-14       3.751485345257e-14       0.000000000000e+00       4.644802218194e-11       5.354795991059e-12      -6.350589474832e-15 
   52       1.994241501189e-10       1.682686517399e-14       1.132260373695e-14       0.000000000000e+00       4.447367450578e-11       5.159635741473e-12      -6.910133806764e-15 
   53       2.023791289885e-10       1.787402887807e-14      -1.654561355982e-14       0.000000000000e+00       4.261256388853e-11       4.974351763601e-12      -7.457785806348e-15 
   54       2.053589553223e-10       1.895869377508e-14      -4.615028302406e-14       0.000000000000e+00       4.085321342297e-11       4.797725634811e-12      -7.898744355164e-15 
   55       2.083580384676e-10       2.008087708948e-14      -7.754579838710e-14       0.000000000000e+00       3.918278520595e-11       4.628452341634e-12      -8.150752248754e-15 
   56       2.113780512181e-10       2.124055259014e-14      -1.107430774034e-13       0.000000000000e+00       3.759918839049e-11       4.466520605298e-12      -8.229634916884e-15 
   57       2.144221048212e-10       2.243763882924e-14      -1.457382285264e-13       0.000000000000e+00       3.610144681233e-11       4.312122080289e-12      -8.183939360022e-15 
   58       2.174925516913e-10       2.367199374015e-14      -1.825230769652e-13       0.000000000000e+00       3.468603745779e-11       4.165239228997e-12      -8.071016554660e-15 
   59       2.205909174278e-10       2.494341296779e-14      -2.210850429847e-13       0.000000000000e+00       3.334673355570e-11       4.025631549706e-12      -7.957429372944e-15 
   60       2.237178328331e-10       2.625162819897e-14      -2.614070202070e-13       0.000000000000e+00       3.207444766941e-11       3.892821804588e-12      -7.919360502309e-15 
   61       2.268735069083e-10       2.759632587966e-14      -3.034712636294e-13       0.000000000000e+00       3.085973604388e-11       3.766253489539e-12      -8.023478587934e-15 
   62       2.300594237016e-10       2.897721205373e-14      -3.472723488056e-13       0.000000000000e+00       2.970132349737e-11       3.645835703615e-12      -8.263595108811e-15 
   63       2.332769074341e-10       3.039395918134e-14      -3.928069187728e-13       0.000000000000e+00       2.859922230543e-11       3.531496699310e-12      -8.610448612202e-15 
   64       2.365265653199e-10       3.184618603371e-14      -4.400699364316e-13       0.000000000000e+00       2.755216876390e-11       3.423015259381e-12      -9.029783938915e-15 
   65       2.398082367493e-10       3.333345667027e-14      -4.890546900719e-13       0.000000000000e+00       2.655755072053e-11       3.320012358216e-12      -9.482140097116e-15 
   66       2.431209424713e-10       3.485527941587e-14      -5.397527988996e-13       0.000000000000e+00       2.561133510653e-11       3.221942823196e-12      -9.922638136161e-15 
   67       2.464628337767e-10       3.641110583802e-14      -5.921542185626e-13       0.000000000000e+00       2.470799546820e-11       3.128086996069e-12      -1.030076902041e-14 
   68       2.498320613449e-10       3.800028925451e-14      -6.462465049875e-13       0.000000000000e+00       2.384197710686e-11       3.037738131131e-12      -1.057160650366e-14 
   69       2.532296998108e-10       3.962195278003e-14      -7.020124203226e-13       0.000000000000e+00       2.301259922579e-11       2.950827322791e-12      -1.073255824035e-14 
   70       2.566573272248e-10       4.127509258203e-14      -7.594318495946e-13       0.000000000000e+00       2.222002046582e-11       2.867410806704e-12      -1.079371455921e-14 
   71       2.601161310140e-10       4.295861396371e-14      -8.184824862747e-13       0.000000000000e+00       2.146375663484e-11       2.787482154006e-12      -1.076716098492e-14 
   72       2.636068806859e-10       4.467132930606e-14      -8.791398188361e-13       0.000000000000e+00       2.074264756446e-11       2.710968938730e-12      -1.066705831139e-14 
   73       2.671299005320e-10       4.641195601014e-14      -9.413771173112e-13       0.000000000000e+00       2.005482396660e-11       2.637729405235e-12      -1.050972267510e-14 
   74       2.706850423314e-10       4.817911443918e-14      -1.005165419848e-12       0.000000000000e+00       1.939767429010e-11       2.567549135627e-12      -1.031370562843e-14 
   75       2.742716580545e-10       4.997132586078e-14      -1.070473519268e-12       0.000000000000e+00       1.876781157733e-11       2.500137717182e-12      -1.009987421297e-14 
   76       2.778890052223e-10       5.178712332622e-14      -1.137267999254e-12       0.000000000000e+00       1.816190832669e-11       2.435203180868e-12      -9.887393135140e-15 
   77       2.815376086628e-10       5.362541220015e-14      -1.205513380238e-12       0.000000000000e+00       1.757945010489e-11       2.372698354922e-12      -9.680648431042e-15 
   78       2.852180986390e-10       5.548517194199e-14      -1.275171975819e-12       0.000000000000e+00       1.702042618721e-11       2.312613589131e-12      -9.480073667337e-15 
   79       2.889307820970e-10       5.736534925517e-14      -1.346203833269e-12       0.000000000000e+00       1.648449100197e-11       2.254901259399e-12      -9.286032404277e-15 
   80       2.926756242408e-10       5.926485834511e-14      -1.418566721103e-12       0.000000000000e+00       1.597094878635e-11       2.199474029926e-12      -9.098814238323e-15 
   81       2.964522301089e-10       6.118258117728e-14      -1.492216116659e-12       0.000000000000e+00       1.547873824211e-11       2.146203115391e-12      -8.918630844755e-15 
   82       3.002598261487e-10       6.311736773523e-14      -1.567105193670e-12       0.000000000000e+00       1.500641719141e-11       2.094916543140e-12      -8.745612020286e-15 
   83       3.040972417934e-10       6.506803627866e-14      -1.643184809842e-12       0.000000000000e+00       1.455214723256e-11       2.045397415361e-12      -8.579801725676e-15 
   84       3.079633576241e-10       6.703332860110e-14      -1.720405015495e-12       0.000000000000e+00       1.411413707537e-11       1.997437345447e-12      -8.421237984968e-15 
   85       3.118585755838e-10       6.901176671548e-14      -1.798719894072e-12       0.000000000000e+00       1.369209060305e-11       1.951010752073e-12      -8.270216470676e-15 
   86       3.157835598470e-10       7.100177277274e-14      -1.878083505037e-12       0.000000000000e+00       1.328597185156e-11       1.906126407526e-12      -8.127063562932e-15 
   87       3.197387814758e-10       7.300171145877e-14      -1.958448447098e-12       0.000000000000e+00       1.289556015122e-11       1.862774033984e-12      -7.992053867536e-15 
   88       3.237245078376e-10       7.500988949619e-14      -2.039765871342e-12       0.000000000000e+00       1.252044249131e-11       1.820923492999e-12      -7.865407667924e-15 
   89       3.277407920217e-10       7.702455514605e-14      -2.121985494378e-12       0.000000000000e+00       1.216000588481e-11       1.780523974976e-12      -7.747288377133e-15 
   90       3.317874622576e-10       7.904389770959e-14      -2.205055611474e-12       0.000000000000e+00       1.181342973305e-11       1.741503188651e-12      -7.637799989776e-15 
   91       3.358641113318e-10       8.106604702993e-14      -2.288923109698e-12       0.000000000000e+00       1.147967819040e-11       1.703766550571e-12      -7.536984534001e-15 
   92       3.399700860056e-10       8.308907299385e-14      -2.373533481054e-12       0.000000000000e+00       1.115749252894e-11       1.667196374576e-12      -7.444819523467e-15 
   93       3.441047236585e-10       8.511104968942e-14      -2.458830787662e-12       0.000000000000e+00       1.084568771454e-11       1.631680956849e-12      -7.361148859547e-15 
   94       3.482681259192e-10       8.713025999916e-14      -2.544757522757e-12       0.000000000000e+00       1.054410974325e-11       1.597208595429e-12      -7.285469184595e-15 
   95       3.524604823640e-10       8.914502099966e-14      -2.631254752980e-12       0.000000000000e+00       1.025280884141e-11       1.563786278467e-12      -7.217106535627e-15 
   96       3.566818265652e-10       9.115362243139e-14      -2.718262176787e-12       0.000000000000e+00       9.971744670311e-12       1.531410653818e-12      -7.155276615849e-15 
   97       3.609320289024e-10       9.315432708796e-14      -2.805718136935e-12       0.000000000000e+00       9.700782866747e-12       1.500067628889e-12      -7.099081333110e-15 
   98       3.652107893732e-10       9.514537120542e-14      -2.893559632959e-12       0.000000000000e+00       9.439691583555e-12       1.469731970494e-12      -7.047505338352e-15 
   99       3.695176304042e-10       9.712496485143e-14      -2.981722333652e-12       0.000000000000e+00       9.188138030149e-12       1.440366904704e-12      -6.999412564060e-15 
  100       3.738518896623e-10       9.909129231457e-14      -3.070140589548e-12       0.000000000000e+00       8.945685013057e-12       1.411923716698e-12      -6.953542762713e-15 
  101       3.782127128658e-10       1.010425124936e-13      -3.158747445405e-12       0.000000000000e+00       8.711787476456e-12       1.384341350616e-12      -6.908508045235e-15 
  102       3.825990465951e-10       1.029767592866e-13      -3.247474652678e-12       0.000000000000e+00       8.485789042713e-12       1.357546009408e-12      -6.862789419441e-15 
  103       3.870096311037e-10       1.048921419805e-13      -3.336252682006e-12       0.000000000000e+00       8.266918552921e-12       1.331450754686e-12      -6.814733328494e-15 
  104       3.914432653924e-10       1.067867840973e-13      -3.425011720378e-12       0.000000000000e+00       8.054463781095e-12       1.305976297955e-12      -6.762918333266e-15 
  105       3.958996586941e-10       1.086589450723e-13      -3.513684789161e-12       0.000000000000e+00       7.848326753188e-12       1.281117434808e-12      -6.707319027745e-15 
  106       4.003786811452e-10       1.105069158152e-13      -3.602205072498e-12       0.000000000000e+00       7.648537343373e-12       1.256884880807e-12      -6.648293630258e-15 
  107       4.048800976478e-10       1.123289825226e-13      -3.690504993259e-12       0.000000000000e+00       7.455081304906e-12       1.233284716242e-12      -6.586228478456e-15 
