# dimensionless total lensed [l(l+1)/2pi] C_l's
# for l=2 to 2500, i.e. number of multipoles equal to 2499
#
# -> if you prefer output in CAMB/HealPix/LensPix units/order, set 'format' to 'camb' in input file
# -> if you don't want to see such a header, set 'headers' to 'no' in input file
# -> for CMB lensing (phi), these are C_l^phi-phi for the lensing potential.
#    Remember the conversion factors:
#    C_l^dd (deflection) = l(l+1) C_l^phi-phi
#    C_l^gg (shear/convergence) = 1/4 (l(l+1))^2 C_l^phi-phi
#
# 1:l     2:TT                     3:EE                     4:TE                     5:BB                     6:phiphi                 7:TPhi                   8:Ephi               
    2       1.368113859992e-10       4.941734526803e-15       3.764640389970e-13       1.919738121132e-19       8.052770167482e-09       4.496876070918e-10      -1.996177545568e-12 
    3       1.295837771071e-10       7.150386534071e-15       4.448374066883e-13       3.840426743711e-19       4.960886549111e-09       3.184712809747e-10      -1.621802415780e-12 
    4       1.225779125629e-10       7.038384313408e-15       4.344025806890e-13       6.402803987390e-19       3.441584127094e-09       2.408701765387e-10      -1.166496071037e-12 
    5       1.172450427948e-10       5.384178725310e-15       3.849168928577e-13       9.608083515039e-19       2.561200801825e-09       1.900211180955e-10      -7.487951571331e-13 
    6       1.135085694151e-10       3.396846823652e-15       3.210859547882e-13       1.345773745409e-18       1.995222553408e-09       1.543201325204e-10      -4.076096825288e-13 
    7       1.110283780772e-10       1.897512389606e-15       2.584678694557e-13       1.795346835831e-18       1.606030977252e-09       1.280627887501e-10      -1.563767343809e-13 
    8       1.095624412436e-10       1.091600725681e-15       2.051918423591e-13       2.309717740816e-18       1.324557311268e-09       1.081557788008e-10       6.661503653988e-15 
    9       1.088637042143e-10       7.814686800375e-16       1.648290570585e-13       2.889092975444e-18       1.113198647109e-09       9.272321211257e-11       9.285550279337e-14 
   10       1.086956961345e-10       6.798645459434e-16       1.379995363699e-13       3.533691798078e-18       9.498295999114e-10       8.049092890461e-11       1.193476336292e-13 
   11       1.089827147544e-10       6.064943409859e-16       1.232681659709e-13       4.243742469947e-18       8.015143230902e-10       7.104254411852e-11       1.056762861448e-13 
   12       1.096189698957e-10       5.188442311250e-16       1.180577330372e-13       5.019478530123e-18       6.991750098155e-10       6.260184135911e-11       7.029510828612e-14 
   13       1.104663119302e-10       4.454833601840e-16       1.195755884997e-13       5.861135185296e-18       6.152460157157e-10       5.580582140838e-11       2.906354893953e-14 
   14       1.115793457873e-10       4.138321023390e-16       1.252288967845e-13       6.768945907943e-18       5.454975180127e-10       5.002647507957e-11      -7.415073894206e-15 
   15       1.128396283512e-10       4.219266585104e-16       1.328500379836e-13       7.743139327689e-18       4.868501640517e-10       4.506813928138e-11      -3.280321032039e-14 
   16       1.142365131103e-10       4.503068978050e-16       1.409502058808e-13       8.783936489321e-18       4.370391412103e-10       4.083668546225e-11      -4.502966603257e-14 
   17       1.157493335011e-10       4.844464020799e-16       1.487699433929e-13       9.891548537303e-18       3.943560044007e-10       3.717812939459e-11      -4.550579106200e-14 
   18       1.173594378516e-10       5.250408576059e-16       1.560543621277e-13       1.106617468941e-17       3.573502732386e-10       3.397186457861e-11      -3.783682227911e-14 
   19       1.190818948862e-10       5.810838641162e-16       1.629635096951e-13       1.230800180091e-17       3.254223487206e-10       3.116861166580e-11      -2.578944534063e-14 
   20       1.208834853873e-10       6.628813102408e-16       1.698154448861e-13       1.361720150025e-17       2.973326583155e-10       2.866793739799e-11      -1.381693810137e-14 
   21       1.227532862450e-10       7.715111482080e-16       1.769399788578e-13       1.499393272538e-17       2.726325620897e-10       2.644441203680e-11      -4.439986745767e-15 
   22       1.246605446368e-10       9.039809504114e-16       1.846378557954e-13       1.643833859543e-17       2.507237107002e-10       2.446193519743e-11       5.928190361479e-16 
   23       1.266230138776e-10       1.057909004864e-15       1.928866020402e-13       1.795055063319e-17       2.312996449859e-10       2.269943996167e-11       1.254046175675e-15 
   24       1.286505622956e-10       1.230944268660e-15       2.014943286377e-13       1.953068558385e-17       2.139062293058e-10       2.111838043275e-11      -1.563572044823e-15 
   25       1.307329142903e-10       1.423749007931e-15       2.101969705840e-13       2.117885169849e-17       1.983349366924e-10       1.969815040624e-11      -6.424294539656e-15 
   26       1.328421189825e-10       1.637484644979e-15       2.186432949256e-13       2.289514479717e-17       1.843000163312e-10       1.841077207376e-11      -1.152645965295e-14 
   27       1.349904304054e-10       1.871140173907e-15       2.264473882329e-13       2.467965451205e-17       1.716302360116e-10       1.724624518343e-11      -1.564459845258e-14 
   28       1.371914451518e-10       2.123235174341e-15       2.332115626976e-13       2.653246174951e-17       1.601043482750e-10       1.619117282518e-11      -1.779792665578e-14 
   29       1.394494852458e-10       2.394938612281e-15       2.387664822965e-13       2.845364942417e-17       1.496615735131e-10       1.523702347574e-11      -1.793065314616e-14 
   30       1.417519294398e-10       2.688491320471e-15       2.430162572523e-13       3.044329396173e-17       1.401877858570e-10       1.436593678409e-11      -1.637763309830e-14 
   31       1.440761654046e-10       3.006314299707e-15       2.459034143099e-13       3.250146579102e-17       1.314873293147e-10       1.355302607400e-11      -1.364428248554e-14 
   32       1.464280363212e-10       3.350138297076e-15       2.475106950473e-13       3.462824384250e-17       1.235139478766e-10       1.279704449418e-11      -1.039538080250e-14 
   33       1.488153139849e-10       3.721567996482e-15       2.480038423800e-13       3.682370659105e-17       1.162100782183e-10       1.209981859907e-11      -7.488212069324e-15 
   34       1.512384278627e-10       4.122102336660e-15       2.475583698997e-13       3.908793104381e-17       1.094720718371e-10       1.145881035840e-11      -5.759698406105e-15 
   35       1.536969313161e-10       4.552404988966e-15       2.461809378892e-13       4.142100164745e-17       1.032644221925e-10       1.087090684805e-11      -5.224103976989e-15 
   36       1.561835299839e-10       5.012761761388e-15       2.438265778402e-13       4.382300509562e-17       9.753625112776e-11       1.032908095660e-11      -5.591318716711e-15 
   37       1.586872492991e-10       5.503404194078e-15       2.404335112651e-13       4.629402868431e-17       9.221178048231e-11       9.823805202709e-12      -6.510293035192e-15 
   38       1.612135409461e-10       6.025012624460e-15       2.358833839396e-13       4.883416129892e-17       8.727664357174e-11       9.352994316178e-12      -7.705730252775e-15 
   39       1.637696989548e-10       6.578367560780e-15       2.300257366205e-13       5.144349347884e-17       8.271468123924e-11       8.914799339698e-12      -8.877326995185e-15 
   40       1.663588542845e-10       7.164211668260e-15       2.226865908925e-13       5.412211771017e-17       7.848171119005e-11       8.504642333624e-12      -9.657732488175e-15 
   41       1.689807427128e-10       7.783234180698e-15       2.137050609849e-13       5.687012578780e-17       7.452078521266e-11       8.116939022921e-12      -9.719912881177e-15 
   42       1.716354809937e-10       8.436024314534e-15       2.030613629559e-13       5.968759882220e-17       7.081979996356e-11       7.751510720819e-12      -9.151403428536e-15 
   43       1.743201994731e-10       9.123098290779e-15       1.907877884386e-13       6.257461471246e-17       6.736853347388e-11       7.408860929200e-12      -8.194799271306e-15 
   44       1.770274989610e-10       9.844907559589e-15       1.769351030288e-13       6.553125115892e-17       6.414136544958e-11       7.088295582006e-12      -7.150090750763e-15 
   45       1.797490870638e-10       1.060185960804e-14       1.615574058133e-13       6.855757976296e-17       6.110632884130e-11       6.788371603972e-12      -6.310213058754e-15 
   46       1.824889293117e-10       1.139439608218e-14       1.446588777505e-13       7.165364569881e-17       5.825837393126e-11       6.508643470991e-12      -5.736562987571e-15 
   47       1.852533470066e-10       1.222293204302e-14       1.262328690795e-13       7.481948234280e-17       5.559396821263e-11       6.248264858388e-12      -5.422257412028e-15 
   48       1.880471564572e-10       1.308783161406e-14       1.062767881823e-13       7.805511674159e-17       5.310106992602e-11       6.005414451020e-12      -5.353779413081e-15 
   49       1.908735001740e-10       1.398940586804e-14       8.479220244504e-14       8.136056948197e-17       5.075849660893e-11       5.777225407824e-12      -5.510527960153e-15 
   50       1.937339235681e-10       1.492791673053e-14       6.177589810779e-14       8.473584962020e-17       4.854225510756e-11       5.560566122485e-12      -5.860931459868e-15 
   51       1.966290212219e-10       1.590359484221e-14       3.718996496787e-14       8.818093814915e-17       4.644802218194e-11       5.354795991059e-12      -6.350589474832e-15 
   52       1.995576742509e-10       1.691662289229e-14       1.098376585239e-14       9.169579981847e-17       4.447367450578e-11       5.159635741473e-12      -6.910133806764e-15 
   53       2.025166666093e-10       1.796712823875e-14      -1.689804897616e-14       9.528038732887e-17       4.261256388853e-11       4.974351763601e-12      -7.457785806348e-15 
   54       2.055005278378e-10       1.905518107832e-14      -4.651586641798e-14       9.893464096943e-17       4.085321342297e-11       4.797725634811e-12      -7.898744355164e-15 
   55       2.085036670779e-10       2.018079664085e-14      -7.792397889784e-14       1.026584912175e-16       3.918278520595e-11       4.628452341634e-12      -8.150752248754e-15 
   56       2.115277561678e-10       2.134394660355e-14      -1.111332075314e-13       1.064518681252e-16       3.759918839049e-11       4.466520605298e-12      -8.229634916884e-15 
   57       2.145759052266e-10       2.254454730673e-14      -1.461395623098e-13       1.103146936298e-16       3.610144681233e-11       4.312122080289e-12      -8.183939360022e-15 
   58       2.176504655794e-10       2.378245434090e-14      -1.829347657239e-13       1.142468785532e-16       3.468603745779e-11       4.165239228997e-12      -8.071016554660e-15 
   59       2.207529617754e-10       2.505746087345e-14      -2.215061310151e-13       1.182483223547e-16       3.334673355570e-11       4.025631549706e-12      -7.957429372944e-15 
   60       2.238840236055e-10       2.636929597535e-14      -2.618364404264e-13       1.223189128841e-16       3.207444766941e-11       3.892821804588e-12      -7.919360502309e-15 
   61       2.270438587527e-10       2.771764347076e-14      -3.039078354798e-13       1.264585404255e-16       3.085973604388e-11       3.766253489539e-12      -8.023478587934e-15 
   62       2.302339485107e-10       2.910220721551e-14      -3.477147836394e-13       1.306671440739e-16       2.970132349737e-11       3.645835703615e-12      -8.263595108811e-15 
   63       2.334556137841e-10       3.052265756844e-14      -3.932538193551e-13       1.349446753768e-16       2.859922230543e-11       3.531496699310e-12      -8.610448612202e-15 
   64       2.367094582217e-10       3.197861115965e-14      -4.405197943051e-13       1.392910851637e-16       2.755216876390e-11       3.423015259381e-12      -9.029783938915e-15 
   65       2.399953173879e-10       3.346962986834e-14      -4.895058829455e-13       1.437063237523e-16       2.655755072053e-11       3.320012358216e-12      -9.482140097116e-15 
   66       2.433122079345e-10       3.499521980070e-14      -5.402035880606e-13       1.481903411547e-16       2.561133510653e-11       3.221942823196e-12      -9.922638136161e-15 
   67       2.466582767725e-10       3.655483026784e-14      -5.926027463120e-13       1.527430872835e-16       2.470799546820e-11       3.128086996069e-12      -1.030076902041e-14 
   68       2.500316700310e-10       3.814781247366e-14      -6.466907919642e-13       1.573645276793e-16       2.384197710686e-11       3.037738131131e-12      -1.057160650366e-14 
   69       2.534334580114e-10       3.977328814286e-14      -7.024503624148e-13       1.620546939324e-16       2.301259922579e-11       2.950827322791e-12      -1.073255824035e-14 
   70       2.568652143188e-10       4.143025231507e-14      -7.598612152220e-13       1.668136438952e-16       2.222002046582e-11       2.867410806704e-12      -1.079371455921e-14 
   71       2.603281216994e-10       4.311760926377e-14      -8.189009138184e-13       1.716414476573e-16       2.146375663484e-11       2.787482154006e-12      -1.076716098492e-14 
   72       2.638229447361e-10       4.483417044371e-14      -8.795448140879e-13       1.765381881489e-16       2.074264756446e-11       2.710968938730e-12      -1.066705831139e-14 
   73       2.673500025443e-10       4.657865243840e-14      -9.417660509432e-13       1.815039617438e-16       2.005482396660e-11       2.637729405235e-12      -1.050972267510e-14 
   74       2.709091414675e-10       4.834967490752e-14      -1.005535524903e-12       1.865388788627e-16       1.939767429010e-11       2.567549135627e-12      -1.031370562843e-14 
   75       2.744997077729e-10       5.014575853441e-14      -1.070821888669e-12       1.916430645761e-16       1.876781157733e-11       2.500137717182e-12      -1.009987421297e-14 
   76       2.781209535673e-10       5.196543586060e-14      -1.137591583266e-12       1.968166576375e-16       1.816190832669e-11       2.435203180868e-12      -9.887393135140e-15 
   77       2.817734003578e-10       5.380761166025e-14      -1.205808983745e-12       2.020598060456e-16       1.757945010489e-11       2.372698354922e-12      -9.680648431042e-15 
   78       2.854576756919e-10       5.567126485795e-14      -1.275436255786e-12       2.073726717643e-16       1.702042618721e-11       2.312613589131e-12      -9.480073667337e-15 
   79       2.891740838733e-10       5.755534172966e-14      -1.346433296287e-12       2.127554327838e-16       1.648449100197e-11       2.254901259399e-12      -9.286032404277e-15 
   80       2.929225875407e-10       5.945875616494e-14      -1.418757720959e-12       2.182082836909e-16       1.597094878635e-11       2.199474029926e-12      -9.098814238323e-15 
   81       2.967027892478e-10       6.138038992928e-14      -1.492364851916e-12       2.237314362405e-16       1.547873824211e-11       2.146203115391e-12      -8.918630844755e-15 
   82       3.005139130415e-10       6.331909292637e-14      -1.567207705273e-12       2.293251199262e-16       1.500641719141e-11       2.094916543140e-12      -8.745612020286e-15 
   83       3.043547860421e-10       6.527368346041e-14      -1.643236978735e-12       2.349895825513e-16       1.455214723256e-11       2.045397415361e-12      -8.579801725676e-15 
   84       3.082242865476e-10       6.724290332293e-14      -1.720402565210e-12       2.407250785428e-16       1.411413707537e-11       1.997437345447e-12      -8.421237984968e-15 
   85       3.121228140525e-10       6.922527392377e-14      -1.798658409122e-12       2.465318304159e-16       1.369209060305e-11       1.951010752073e-12      -8.270216470676e-15 
   86       3.160510302866e-10       7.121921667971e-14      -1.877958436163e-12       2.524100619380e-16       1.328597185156e-11       1.906126407526e-12      -8.127063562932e-15 
   87       3.200094039327e-10       7.322309557966e-14      -1.958255111911e-12       2.583600101778e-16       1.289556015122e-11       1.862774033984e-12      -7.992053867536e-15 
   88       3.239982000466e-10       7.523521668775e-14      -2.039499455065e-12       2.643819258702e-16       1.252044249131e-11       1.820923492999e-12      -7.865407667924e-15 
   89       3.280174694769e-10       7.725382764633e-14      -2.121641050689e-12       2.704760737811e-16       1.216000588481e-11       1.780523974976e-12      -7.747288377133e-15 
   90       3.320670382849e-10       7.927711717904e-14      -2.204628063450e-12       2.766427330725e-16       1.181342973305e-11       1.741503188651e-12      -7.637799989776e-15 
   91       3.361464971650e-10       8.130321459385e-14      -2.288407250863e-12       2.828821976676e-16       1.147967819040e-11       1.703766550571e-12      -7.536984534001e-15 
   92       3.402551908644e-10       8.333018928607e-14      -2.372923976526e-12       2.891947766154e-16       1.115749252894e-11       1.667196374576e-12      -7.444819523467e-15 
   93       3.443924542346e-10       8.535611525587e-14      -2.458122180128e-12       2.955807973937e-16       1.084568771454e-11       1.631680956849e-12      -7.361148859547e-15 
   94       3.485583839788e-10       8.737927683993e-14      -2.543944253520e-12       3.020406155912e-16       1.054410974325e-11       1.597208595429e-12      -7.285469184595e-15 
   95       3.527531639539e-10       8.939799314698e-14      -2.630331170397e-12       3.085746073632e-16       1.025280884141e-11       1.563786278467e-12      -7.217106535627e-15 
   96       3.569768217832e-10       9.141055619055e-14      -2.717222540356e-12       3.151831670233e-16       9.971744670311e-12       1.531410653818e-12      -7.155276615849e-15 
   97       3.612292216615e-10       9.341523128442e-14      -2.804556621542e-12       3.218667074490e-16       9.700782866747e-12       1.500067628889e-12      -7.099081333110e-15 
   98       3.655100571609e-10       9.541025743811e-14      -2.892270333296e-12       3.286256604868e-16       9.439691583555e-12       1.469731970494e-12      -7.047505338352e-15 
   99       3.698188440356e-10       9.739384775240e-14      -2.980299268801e-12       3.354604773577e-16       9.188138030149e-12       1.440366904704e-12      -6.999412564060e-15 
  100       3.741549130280e-10       9.936418981477e-14      -3.068577707733e-12       3.423716290622e-16       8.945685013057e-12       1.411923716698e-12      -6.953542762713e-15 
  101       3.785174026739e-10       1.013194460949e-13      -3.157038628904e-12       3.493596067860e-16       8.711787476456e-12       1.384341350616e-12      -6.908508045235e-15 
  102       3.829052521079e-10       1.032577543401e-13      -3.245613722912e-12       3.564249223048e-16       8.485789042713e-12       1.357546009408e-12      -6.862789419441e-15 
  103       3.873171938688e-10       1.051772279709e-13      -3.334233404787e-12       3.635681083900e-16       8.266918552921e-12       1.331450754686e-12      -6.814733328494e-15 
  104       3.917520197192e-10       1.070759950539e-13      -3.422827808860e-12       3.707897180568e-16       8.054463781095e-12       1.305976297955e-12      -6.762918333266e-15 
  105       3.962094344950e-10       1.089523203642e-13      -3.511329899184e-12       3.780903213206e-16       7.848326753188e-12       1.281117434808e-12      -6.707319027745e-15 
  106       4.006893047228e-10       1.108045006258e-13      -3.599672804818e-12       3.854705087562e-16       7.648537343373e-12       1.256884880807e-12      -6.648293630258e-15 
  107       4.051913917620e-10       1.126308282164e-13      -3.687788898288e-12       3.929308930030e-16       7.455081304906e-12       1.233284716242e-12      -6.586228478456e-15 
