# Matter power spectrum P(k) at redshift z=5.5
# for k=1.04563e-05 to 1006.13 h/Mpc,
# number of wavenumbers equal to 625
#    1:k (h/Mpc)              2:P (Mpc/h)^3        
       1.045629393498e-05       1.708004066246e+00 
       2.372900639820e-05       3.824301400420e+00 
       3.705038830857e-05       5.924363376617e+00 
       5.045849811123e-05       8.022397799017e+00 
       6.399205400520e-05       1.012809082434e+01 
       7.769080041399e-05       1.224962431906e+01 
       9.159588674793e-05       1.439458139461e+01 
       1.057502637854e-04       1.657034814251e+01 
       1.201991030382e-04       1.878434125894e+01 
       1.349902445026e-04       2.104416355354e+01 
       1.501746781875e-04       2.335772634110e+01 
       1.658070647103e-04       2.573335657405e+01 
       1.819462999697e-04       2.817989781454e+01 
       1.986561283524e-04       3.070680948712e+01 
       2.160058079578e-04       3.332426804525e+01 
       2.340708297436e-04       3.604327042039e+01 
       2.529336900652e-04       3.887574089345e+01 
       2.726847124767e-04       4.183464107897e+01 
       2.934229094968e-04       4.493408023213e+01 
       3.152568678448e-04       4.818942448127e+01 
       3.383056308993e-04       5.161739925436e+01 
       3.626995392886e-04       5.523617855597e+01 
       3.885809741591e-04       5.906545210914e+01 
       4.161049276017e-04       6.312645838828e+01 
       4.454393013340e-04       6.744196625855e+01 
       4.767648093336e-04       7.203618868160e+01 
       5.102743354399e-04       7.693460325353e+01 
       5.461715776932e-04       8.216365694696e+01 
       5.846688044146e-04       8.775032979328e+01 
       6.259835620572e-04       9.372153740364e+01 
       6.703342222355e-04       1.001033611845e+02 
       7.179343443654e-04       1.069201106903e+02 
       7.689859650139e-04       1.141932449128e+02 
       8.236720987643e-04       1.219402083001e+02 
       8.821489263841e-04       1.301732682012e+02 
       9.445383163731e-04       1.388984548465e+02 
       1.010921427124e-03       1.481147351881e+02 
       1.081334123662e-03       1.578135228854e+02 
       1.155764791463e-03       1.679786119983e+02 
       1.234154853213e-03       1.785865586795e+02 
       1.316401945199e-03       1.896074878944e+02 
       1.402365366598e-03       2.010062353579e+02 
       1.491873154658e-03       2.127437055560e+02 
       1.584730011839e-03       2.247783008618e+02 
       1.680725326149e-03       2.370672985554e+02 
       1.779640654398e-03       2.495680735478e+02 
       1.881256229852e-03       2.622390991081e+02 
       1.985356259445e-03       2.750407184218e+02 
       2.091732952843e-03       2.879356593291e+02 
       2.200189356041e-03       3.008892462601e+02 
       2.310541142019e-03       3.138695208652e+02 
       2.422617547090e-03       3.268480424510e+02 
       2.536261645635e-03       3.397988371351e+02 
       2.651330139891e-03       3.526986309537e+02 
       2.767692815208e-03       3.655267039507e+02 
       2.885231781840e-03       3.782647466086e+02 
       3.003840596269e-03       3.908966117189e+02 
       3.123423330440e-03       4.034082222772e+02 
       3.243893637094e-03       4.157873339753e+02 
       3.365173843516e-03       4.280233718047e+02 
       3.487194093980e-03       4.401072697908e+02 
       3.609891552436e-03       4.520312965694e+02 
       3.733209670762e-03       4.637889868263e+02 
       3.857097523654e-03       4.753748462386e+02 
       3.981509208481e-03       4.867843333195e+02 
       4.106403306687e-03       4.980138079158e+02 
       4.231742402400e-03       5.090602064492e+02 
       4.357492653424e-03       5.199213196097e+02 
       4.483623409728e-03       5.305952839338e+02 
       4.610106874634e-03       5.410809775658e+02 
       4.736917804193e-03       5.513775181693e+02 
       4.864033240544e-03       5.614845680700e+02 
       4.991432275435e-03       5.714021725091e+02 
       5.119095840429e-03       5.811305181549e+02 
       5.247006520708e-03       5.906703346056e+02 
       5.375148389705e-03       6.000222890721e+02 
       5.503506862102e-03       6.091874559955e+02 
       5.632068563057e-03       6.181671971867e+02 
       5.760821211709e-03       6.269627487443e+02 
       5.889753517327e-03       6.355756349131e+02 
       6.018855086584e-03       6.440074756912e+02 
       6.148116340685e-03       6.522599066936e+02 
       6.277528441206e-03       6.603348242846e+02 
       6.407083223629e-03       6.682342154391e+02 
       6.536773137714e-03       6.759597093731e+02 
       6.666591193923e-03       6.835134760049e+02 
       6.796530915227e-03       6.908974089916e+02 
       6.926586293688e-03       6.981135998572e+02 
       7.056751751303e-03       7.051643095386e+02 
       7.187022104635e-03       7.120515110070e+02 
       7.317392532840e-03       7.187772190266e+02 
       7.447858548702e-03       7.253435898995e+02 
       7.578415972392e-03       7.317528211284e+02 
       7.709060907633e-03       7.380066693448e+02 
       7.839789720055e-03       7.441077299983e+02 
       7.970599017490e-03       7.500578402685e+02 
       8.101485632030e-03       7.558587680608e+02 
       8.232446603659e-03       7.615130109549e+02 
       8.363479165321e-03       7.670225343973e+02 
       8.494580729256e-03       7.723888471229e+02 
       8.625748874516e-03       7.776143996788e+02 
       8.756981335523e-03       7.827011786677e+02 
       8.888275991580e-03       7.876510454325e+02 
       9.019630857247e-03       7.924658065472e+02 
       9.151044073500e-03       7.971476425221e+02 
       9.282513899606e-03       8.016981851946e+02 
       9.414038705641e-03       8.061194857001e+02 
       9.545616965607e-03       8.104131872054e+02 
       9.677247251078e-03       8.145812127038e+02 
       9.808928225347e-03       8.186254350797e+02 
       9.940658638019e-03       8.225473421088e+02 
       1.007243732001e-02       8.263488811836e+02 
       1.020426317895e-02       8.300317835376e+02 
       1.033613519488e-02       8.335975793542e+02 
       1.046805241631e-02       8.370482548730e+02 
       1.060001395658e-02       8.403848403888e+02 
       1.073201899042e-02       8.436094686647e+02 
       1.086406675084e-02       8.467236195592e+02 
       1.099615652618e-02       8.497287783647e+02 
       1.112828765743e-02       8.526266376629e+02 
       1.126045953569e-02       8.554199028523e+02 
       1.139267159985e-02       8.581079594154e+02 
       1.152492333440e-02       8.606929700045e+02 
       1.165721426741e-02       8.631762492891e+02 
       1.178954396869e-02       8.655600396245e+02 
       1.192191204800e-02       8.678449168565e+02 
       1.205431815347e-02       8.700324918724e+02 
       1.218676197006e-02       8.721246378231e+02 
       1.231924321818e-02       8.741220420266e+02 
       1.245176165238e-02       8.760263850259e+02 
       1.258431706015e-02       8.778391181852e+02 
       1.271690926079e-02       8.795615191199e+02 
       1.284953810435e-02       8.811943594130e+02 
       1.298220347070e-02       8.827390934740e+02 
       1.311490526862e-02       8.841974078633e+02 
       1.324764343495e-02       8.855704276043e+02 
       1.338041793384e-02       8.868590173493e+02 
       1.351322875602e-02       8.880649084280e+02 
       1.364607591820e-02       8.891890083550e+02 
       1.377895946238e-02       8.902323374974e+02 
       1.391187945537e-02       8.911962332785e+02 
       1.404483598826e-02       8.920819849132e+02 
       1.417782917592e-02       8.928910017221e+02 
       1.431085915661e-02       8.936236353675e+02 
       1.444392609162e-02       8.942817526003e+02 
       1.457703016484e-02       8.948657144684e+02 
       1.471017158253e-02       8.953772572094e+02 
       1.484335057300e-02       8.958169071001e+02 
       1.497656738636e-02       8.961863395932e+02 
       1.510982229432e-02       8.964858350777e+02 
       1.524311559000e-02       8.967173278048e+02 
       1.537644758773e-02       8.968813414590e+02 
       1.550981862299e-02       8.969789111627e+02 
       1.564322905223e-02       8.970113846309e+02 
       1.577667925283e-02       8.969792464134e+02 
       1.591016962304e-02       8.968839384090e+02 
       1.604370058190e-02       8.967263391859e+02 
       1.617727256927e-02       8.965073489057e+02 
       1.631088604585e-02       8.962278045795e+02 
       1.644454149313e-02       8.958888977280e+02 
       1.657823941353e-02       8.954915399787e+02 
       1.671198033042e-02       8.950367153565e+02 
       1.684576478820e-02       8.945253225136e+02 
       1.697959335243e-02       8.939575917584e+02 
       1.711346660996e-02       8.933350258147e+02 
       1.724738516904e-02       8.926593230494e+02 
       1.738134965950e-02       8.919306710213e+02 
       1.751536073295e-02       8.911491225518e+02 
       1.764941906294e-02       8.903164700685e+02 
       1.778352534518e-02       8.894333827506e+02 
       1.791768029781e-02       8.885009225389e+02 
       1.805188466159e-02       8.875194879172e+02 
       1.818613920020e-02       8.864904060144e+02 
       1.832044470050e-02       8.854138984139e+02 
       1.845480197288e-02       8.842912042215e+02 
       1.858921185148e-02       8.831226751570e+02 
       1.872367519461e-02       8.819099290061e+02 
       1.885819288507e-02       8.806532801045e+02 
       1.899276583048e-02       8.793527588839e+02 
       1.912739496373e-02       8.780104275302e+02 
       1.926208124330e-02       8.766256970396e+02 
       1.939682565376e-02       8.752016342317e+02 
       1.953162920614e-02       8.737351324651e+02 
       1.966649293841e-02       8.722318591759e+02 
       1.980141791593e-02       8.706881494042e+02 
       1.993640523197e-02       8.691071735899e+02 
       2.007145600820e-02       8.674891315487e+02 
       2.020657139520e-02       8.658335072829e+02 
       2.034175257302e-02       8.641424085428e+02 
       2.047700075176e-02       8.624166203664e+02 
       2.061231717210e-02       8.606561500264e+02 
       2.074770310596e-02       8.588617590793e+02 
       2.088315985710e-02       8.570342202368e+02 
       2.101868876175e-02       8.551740105121e+02 
       2.115429118930e-02       8.532821789191e+02 
       2.128996854299e-02       8.513606613661e+02 
       2.142572226058e-02       8.494060934193e+02 
       2.156155381514e-02       8.474231914935e+02 
       2.169746471577e-02       8.454106370304e+02 
       2.183345650838e-02       8.433692316973e+02 
       2.196953077651e-02       8.413007037827e+02 
       2.210568914217e-02       8.392031442276e+02 
       2.224193326667e-02       8.370808322707e+02 
       2.237826485153e-02       8.349303730824e+02 
       2.251468563936e-02       8.327547802168e+02 
       2.265119741485e-02       8.305560518991e+02 
       2.278780200570e-02       8.283314288043e+02 
       2.292450128361e-02       8.260824704124e+02 
       2.306129716537e-02       8.238107159786e+02 
       2.319819161386e-02       8.215165809313e+02 
       2.333518663918e-02       8.192013554799e+02 
       2.347228429977e-02       8.168619238514e+02 
       2.360948670358e-02       8.145033483347e+02 
       2.374679600928e-02       8.121247333068e+02 
       2.388421442748e-02       8.097253906712e+02 
       2.402174422201e-02       8.073065037067e+02 
       2.415938771128e-02       8.048695045621e+02 
       2.429714726958e-02       8.024125173107e+02 
       2.443502532852e-02       7.999392522541e+02 
       2.457302437848e-02       7.974495368726e+02 
       2.471114697007e-02       7.949418241712e+02 
       2.484939571572e-02       7.924178683179e+02 
       2.498777329124e-02       7.898786509243e+02 
       2.512628243746e-02       7.873226140584e+02 
       2.526492596194e-02       7.847539402872e+02 
       2.540370674072e-02       7.821703723520e+02 
       2.554262772009e-02       7.795723260013e+02 
       2.568169191854e-02       7.769604403292e+02 
       2.582090242858e-02       7.743353061450e+02 
       2.596026241881e-02       7.716983500992e+02 
       2.609977513597e-02       7.690497270459e+02 
       2.623944390701e-02       7.663908187448e+02 
       2.637927214136e-02       7.637174016697e+02 
       2.651926333315e-02       7.610360361906e+02 
       2.665942106358e-02       7.583424318762e+02 
       2.679974900335e-02       7.556403730907e+02 
       2.694025091517e-02       7.529270531183e+02 
       2.708093065634e-02       7.502062027757e+02 
       2.722179218149e-02       7.474744404549e+02 
       2.736283954531e-02       7.447369551300e+02 
       2.750407690546e-02       7.419892877282e+02 
       2.764550852553e-02       7.392363111170e+02 
       2.778713877818e-02       7.364733417355e+02 
       2.792897214829e-02       7.337063182336e+02 
       2.807101323630e-02       7.309306823804e+02 
       2.821326676166e-02       7.281489906732e+02 
       2.835573756636e-02       7.253623076585e+02 
       2.849843061865e-02       7.225691060118e+02 
       2.864135101690e-02       7.197700388235e+02 
       2.878450399350e-02       7.169688924038e+02 
       2.892789491907e-02       7.141609352718e+02 
       2.907152930670e-02       7.113478313366e+02 
       2.921541281640e-02       7.085351842327e+02 
       2.935955125972e-02       7.057143458740e+02 
       2.950395060459e-02       7.028908141766e+02 
       2.964861698023e-02       7.000646534899e+02 
       2.979355668241e-02       6.972384018191e+02 
       2.993877617879e-02       6.944068459019e+02 
       3.008428211455e-02       6.915734168883e+02 
       3.023008131821e-02       6.887380508549e+02 
       3.037618080774e-02       6.859011413293e+02 
       3.052258779682e-02       6.830615514601e+02 
       3.066930970147e-02       6.802220987887e+02 
       3.081635414687e-02       6.773826092912e+02 
       3.096372897456e-02       6.745382363747e+02 
       3.111144224983e-02       6.716957971336e+02 
       3.125950226953e-02       6.688540925632e+02 
       3.140791757017e-02       6.660131200825e+02 
       3.155669693636e-02       6.631698915929e+02 
       3.170584940966e-02       6.603279370462e+02 
       3.185538429778e-02       6.574858573733e+02 
       3.200531118425e-02       6.546459398608e+02 
       3.215563993846e-02       6.518064876112e+02 
       3.230638072620e-02       6.489679826550e+02 
       3.245754402068e-02       6.461303834104e+02 
       3.260914061403e-02       6.432945506526e+02 
       3.276118162942e-02       6.404592648834e+02 
       3.291367853362e-02       6.376285610064e+02 
       3.306664315032e-02       6.347978816952e+02 
       3.322008767393e-02       6.319686362842e+02 
       3.337402468420e-02       6.291438879748e+02 
       3.352846716144e-02       6.263216714843e+02 
       3.368342850259e-02       6.234984723954e+02 
       3.383892253799e-02       6.206806556781e+02 
       3.399496354914e-02       6.178654218262e+02 
       3.415156628722e-02       6.150523563633e+02 
       3.430874599266e-02       6.122420960967e+02 
       3.446651841573e-02       6.094383237063e+02 
       3.462489983816e-02       6.066351090923e+02 
       3.478390709596e-02       6.038360558538e+02 
       3.494355760347e-02       6.010393083519e+02 
       3.510386937867e-02       5.982472519245e+02 
       3.526486106997e-02       5.954575159245e+02 
       3.542655198438e-02       5.926739258093e+02 
       3.558896211737e-02       5.898931293049e+02 
       3.575211218438e-02       5.871143287436e+02 
       3.591602365412e-02       5.843419646557e+02 
       3.608071878385e-02       5.815712656780e+02 
       3.624622065672e-02       5.788068242886e+02 
       3.641255322133e-02       5.760467275601e+02 
       3.657974133371e-02       5.732886367402e+02 
       3.674781080174e-02       5.705371471320e+02 
       3.691678843252e-02       5.677886404867e+02 
       3.708670208247e-02       5.650415919339e+02 
       3.725758071075e-02       5.623017051503e+02 
       3.742945443605e-02       5.595674487934e+02 
       3.760235459706e-02       5.568348438500e+02 
       3.777631381688e-02       5.541082624542e+02 
       3.795136607180e-02       5.513842151386e+02 
       3.812754676461e-02       5.486640599689e+02 
       3.830489280294e-02       5.459487637981e+02 
       3.848344268310e-02       5.432386717313e+02 
       3.866323657963e-02       5.405304239500e+02 
       3.884431644140e-02       5.378291082571e+02 
       3.902672609446e-02       5.351306889686e+02 
       3.921051135253e-02       5.324348124420e+02 
       3.939572013557e-02       5.297424210757e+02 
       3.958240259735e-02       5.270547770554e+02 
       3.977061126268e-02       5.243706858826e+02 
       3.996040117524e-02       5.216914684810e+02 
       4.015183005710e-02       5.190125766354e+02 
       4.034495848086e-02       5.163390179357e+02 
       4.053985005579e-02       5.136689050937e+02 
       4.073657162917e-02       5.110019175613e+02 
       4.093519350459e-02       5.083369567644e+02 
       4.113578967862e-02       5.056762940529e+02 
       4.133843809796e-02       5.030180104769e+02 
       4.154322093909e-02       5.003608176760e+02 
       4.175022491289e-02       4.977063691527e+02 
       4.195954159683e-02       4.950522579654e+02 
       4.217126779774e-02       4.924026547991e+02 
       4.238550594873e-02       4.897535163453e+02 
       4.260236454389e-02       4.871058146265e+02 
       4.282195861535e-02       4.844588546370e+02 
       4.304441025756e-02       4.818136693913e+02 
       4.326984920439e-02       4.791671415703e+02 
       4.349841346569e-02       4.765221668554e+02 
       4.373025003045e-02       4.738758263274e+02 
       4.396551564516e-02       4.712288934751e+02 
       4.420437767706e-02       4.685821051162e+02 
       4.444701507340e-02       4.659336164532e+02 
       4.469361942959e-02       4.632836389066e+02 
       4.494439618135e-02       4.606310513464e+02 
       4.519956593800e-02       4.579746599127e+02 
       4.545936597719e-02       4.553145771346e+02 
       4.572405192478e-02       4.526522568479e+02 
       4.599389964723e-02       4.499830937610e+02 
       4.626920738928e-02       4.473105880277e+02 
       4.655029819509e-02       4.446309485443e+02 
       4.683752265814e-02       4.419460534653e+02 
       4.713126205384e-02       4.392506519989e+02 
       4.743193191882e-02       4.365503888651e+02 
       4.773998615383e-02       4.338369369217e+02 
       4.805592174215e-02       4.311135309813e+02 
       4.838028419476e-02       4.283782110598e+02 
       4.871367385660e-02       4.256302690089e+02 
       4.905675323735e-02       4.228672455203e+02 
       4.941025556620e-02       4.200877533778e+02 
       4.977499481519e-02       4.172904854618e+02 
       5.015187749221e-02       4.144731580633e+02 
       5.054191657596e-02       4.116332452801e+02 
       5.094624805550e-02       4.087684802724e+02 
       5.136615065107e-02       4.058769544057e+02 
       5.180306943849e-02       4.029550635883e+02 
       5.225864428458e-02       3.999986849735e+02 
       5.273474423734e-02       3.970042296085e+02 
       5.323350931534e-02       3.939669403977e+02 
       5.375740152168e-02       3.908818671482e+02 
       5.430926738696e-02       3.877391779122e+02 
       5.489241493690e-02       3.845348584644e+02 
       5.551070869125e-02       3.812583384419e+02 
       5.616868710997e-02       3.778979807345e+02 
       5.687170773049e-02       3.744374113752e+02 
       5.762612587817e-02       3.708620739725e+02 
       5.843951280896e-02       3.671456790265e+02 
       5.932091747682e-02       3.632602745183e+02 
       6.028117086684e-02       3.591690563976e+02 
       6.133321936070e-02       3.548179541811e+02 
       6.249244755566e-02       3.501421167888e+02 
       6.377690149308e-02       3.450494706965e+02 
       6.520723856982e-02       3.394226850018e+02 
