# Matter power spectrum P(k) at redshift z=4.5
# for k=1.04563e-05 to 1006.13 h/Mpc,
# number of wavenumbers equal to 625
#    1:k (h/Mpc)              2:P (Mpc/h)^3        
       1.045629393498e-05       2.383919634575e+00 
       2.372900639820e-05       5.337705586600e+00 
       3.705038830857e-05       8.268825405534e+00 
       5.045849811123e-05       1.119710609790e+01 
       6.399205400520e-05       1.413606336623e+01 
       7.769080041399e-05       1.709711306480e+01 
       9.159588674793e-05       2.009083489750e+01 
       1.057502637854e-04       2.312753310130e+01 
       1.201991030382e-04       2.621755389469e+01 
       1.349902445026e-04       2.937150240249e+01 
       1.501746781875e-04       3.260041330400e+01 
       1.658070647103e-04       3.591590008862e+01 
       1.819462999697e-04       3.933029567472e+01 
       1.986561283524e-04       4.285679065524e+01 
       2.160058079578e-04       4.650957395692e+01 
       2.340708297436e-04       5.030397678275e+01 
       2.529336900652e-04       5.425662110842e+01 
       2.726847124767e-04       5.838557234582e+01 
       2.934229094968e-04       6.271049239976e+01 
       3.152568678448e-04       6.725279087934e+01 
       3.383056308993e-04       7.203576663471e+01 
       3.626995392886e-04       7.708473065992e+01 
       3.885809741591e-04       8.242709777302e+01 
       4.161049276017e-04       8.809243008127e+01 
       4.454393013340e-04       9.411240894101e+01 
       4.767648093336e-04       1.005207108686e+02 
       5.102743354399e-04       1.073527539647e+02 
       5.461715776932e-04       1.146452820757e+02 
       5.846688044146e-04       1.224357524564e+02 
       6.259835620572e-04       1.307614988525e+02 
       6.703342222355e-04       1.396586556233e+02 
       7.179343443654e-04       1.491608490296e+02 
       7.689859650139e-04       1.592976953940e+02 
       8.236720987643e-04       1.700931829383e+02 
       8.821489263841e-04       1.815640608573e+02 
       9.445383163731e-04       1.937183755296e+02 
       1.010921427124e-03       2.065543376676e+02 
       1.081334123662e-03       2.200596605889e+02 
       1.155764791463e-03       2.342114879057e+02 
       1.234154853213e-03       2.489769444423e+02 
       1.316401945199e-03       2.643142696884e+02 
       1.402365366598e-03       2.801744094787e+02 
       1.491873154658e-03       2.965028962896e+02 
       1.584730011839e-03       3.132418175592e+02 
       1.680725326149e-03       3.303317039153e+02 
       1.779640654398e-03       3.477131999493e+02 
       1.881256229852e-03       3.653284301451e+02 
       1.985356259445e-03       3.831220551137e+02 
       2.091732952843e-03       4.010419836556e+02 
       2.200189356041e-03       4.190396791230e+02 
       2.310541142019e-03       4.370703503593e+02 
       2.422617547090e-03       4.550940964512e+02 
       2.536261645635e-03       4.730744799553e+02 
       2.651330139891e-03       4.909788918397e+02 
       2.767692815208e-03       5.087783159715e+02 
       2.885231781840e-03       5.264472443871e+02 
       3.003840596269e-03       5.439632221215e+02 
       3.123423330440e-03       5.613067560500e+02 
       3.243893637094e-03       5.784609534168e+02 
       3.365173843516e-03       5.954112701924e+02 
       3.487194093980e-03       6.121452680509e+02 
       3.609891552436e-03       6.286523572521e+02 
       3.733209670762e-03       6.449236952123e+02 
       3.857097523654e-03       6.609517771297e+02 
       3.981509208481e-03       6.767304201278e+02 
       4.106403306687e-03       6.922546980609e+02 
       4.231742402400e-03       7.075205026693e+02 
       4.357492653424e-03       7.225249340747e+02 
       4.483623409728e-03       7.372655962908e+02 
       4.610106874634e-03       7.517411424473e+02 
       4.736917804193e-03       7.659505707458e+02 
       4.864033240544e-03       7.798936369872e+02 
       4.991432275435e-03       7.935706230934e+02 
       5.119095840429e-03       8.069819893372e+02 
       5.247006520708e-03       8.201289337581e+02 
       5.375148389705e-03       8.330125465783e+02 
       5.503506862102e-03       8.456344670729e+02 
       5.632068563057e-03       8.579967217879e+02 
       5.760821211709e-03       8.701011558680e+02 
       5.889753517327e-03       8.819500113030e+02 
       6.018855086584e-03       8.935456634062e+02 
       6.148116340685e-03       9.048905087681e+02 
       6.277528441206e-03       9.159873035149e+02 
       6.407083223629e-03       9.268389251196e+02 
       6.536773137714e-03       9.374477468594e+02 
       6.666591193923e-03       9.478168819322e+02 
       6.796530915227e-03       9.579490489527e+02 
       6.926586293688e-03       9.678472422657e+02 
       7.056751751303e-03       9.775146443573e+02 
       7.187022104635e-03       9.869542623982e+02 
       7.317392532840e-03       9.961686949685e+02 
       7.447858548702e-03       1.005161026215e+03 
       7.578415972392e-03       1.013934435625e+03 
       7.709060907633e-03       1.022491488983e+03 
       7.839789720055e-03       1.030835901940e+03 
       7.970599017490e-03       1.038970336987e+03 
       8.101485632030e-03       1.046897342525e+03 
       8.232446603659e-03       1.054620481457e+03 
       8.363479165321e-03       1.062142555007e+03 
       8.494580729256e-03       1.069465743407e+03 
       8.625748874516e-03       1.076593521476e+03 
       8.756981335523e-03       1.083528711698e+03 
       8.888275991580e-03       1.090273961785e+03 
       9.019630857247e-03       1.096831843472e+03 
       9.151044073500e-03       1.103205438716e+03 
       9.282513899606e-03       1.109397072509e+03 
       9.414038705641e-03       1.115409643042e+03 
       9.545616965607e-03       1.121245480328e+03 
       9.677247251078e-03       1.126907296010e+03 
       9.808928225347e-03       1.132397727413e+03 
       9.940658638019e-03       1.137718872088e+03 
       1.007243732001e-02       1.142873455238e+03 
       1.020426317895e-02       1.147863867955e+03 
       1.033613519488e-02       1.152694328681e+03 
       1.046805241631e-02       1.157363962458e+03 
       1.060001395658e-02       1.161875814425e+03 
       1.073201899042e-02       1.166232866427e+03 
       1.086406675084e-02       1.170437186807e+03 
       1.099615652618e-02       1.174490846027e+03 
       1.112828765743e-02       1.178396205099e+03 
       1.126045953569e-02       1.182155002501e+03 
       1.139267159985e-02       1.185770051672e+03 
       1.152492333440e-02       1.189242750166e+03 
       1.165721426741e-02       1.192574929944e+03 
       1.178954396869e-02       1.195769703686e+03 
       1.192191204800e-02       1.198827878200e+03 
       1.205431815347e-02       1.201751685980e+03 
       1.218676197006e-02       1.204543721296e+03 
       1.231924321818e-02       1.207204940417e+03 
       1.245176165238e-02       1.209737672658e+03 
       1.258431706015e-02       1.212143931467e+03 
       1.271690926079e-02       1.214425491503e+03 
       1.284953810435e-02       1.216583430980e+03 
       1.298220347070e-02       1.218619772685e+03 
       1.311490526862e-02       1.220536861484e+03 
       1.324764343495e-02       1.222336270540e+03 
       1.338041793384e-02       1.224019212705e+03 
       1.351322875602e-02       1.225588102512e+03 
       1.364607591820e-02       1.227044210702e+03 
       1.377895946238e-02       1.228388986636e+03 
       1.391187945537e-02       1.229624329068e+03 
       1.404483598826e-02       1.230751945248e+03 
       1.417782917592e-02       1.231773787860e+03 
       1.431085915661e-02       1.232690368928e+03 
       1.444392609162e-02       1.233504336209e+03 
       1.457703016484e-02       1.234216201881e+03 
       1.471017158253e-02       1.234828384873e+03 
       1.484335057300e-02       1.235341629331e+03 
       1.497656738636e-02       1.235758270210e+03 
       1.510982229432e-02       1.236078718097e+03 
       1.524311559000e-02       1.236305661411e+03 
       1.537644758773e-02       1.236439844821e+03 
       1.550981862299e-02       1.236482718584e+03 
       1.564322905223e-02       1.236436160624e+03 
       1.577667925283e-02       1.236300858941e+03 
       1.591016962304e-02       1.236078820993e+03 
       1.604370058190e-02       1.235771276477e+03 
       1.617727256927e-02       1.235379483037e+03 
       1.631088604585e-02       1.234904609068e+03 
       1.644454149313e-02       1.234348312810e+03 
       1.657823941353e-02       1.233711863791e+03 
       1.671198033042e-02       1.232996630240e+03 
       1.684576478820e-02       1.232203863446e+03 
       1.697959335243e-02       1.231333890760e+03 
       1.711346660996e-02       1.230388793187e+03 
       1.724738516904e-02       1.229370918858e+03 
       1.738134965950e-02       1.228280530862e+03 
       1.751536073295e-02       1.227117714277e+03 
       1.764941906294e-02       1.225884940946e+03 
       1.778352534518e-02       1.224583140854e+03 
       1.791768029781e-02       1.223213782364e+03 
       1.805188466159e-02       1.221777417036e+03 
       1.818613920020e-02       1.220275882685e+03 
       1.832044470050e-02       1.218709484302e+03 
       1.845480197288e-02       1.217079936608e+03 
       1.858921185148e-02       1.215387730288e+03 
       1.872367519461e-02       1.213635095054e+03 
       1.885819288507e-02       1.211822474599e+03 
       1.899276583048e-02       1.209949913595e+03 
       1.912739496373e-02       1.208020260068e+03 
       1.926208124330e-02       1.206032711563e+03 
       1.939682565376e-02       1.203991497014e+03 
       1.953162920614e-02       1.201892354164e+03 
       1.966649293841e-02       1.199743083986e+03 
       1.980141791593e-02       1.197538663441e+03 
       1.993640523197e-02       1.195283461303e+03 
       2.007145600820e-02       1.192977768853e+03 
       2.020657139520e-02       1.190620890242e+03 
       2.034175257302e-02       1.188215734522e+03 
       2.047700075176e-02       1.185763402204e+03 
       2.061231717210e-02       1.183263916621e+03 
       2.074770310596e-02       1.180718341269e+03 
       2.088315985710e-02       1.178127755666e+03 
       2.101868876175e-02       1.175492835485e+03 
       2.115429118930e-02       1.172815041531e+03 
       2.128996854299e-02       1.170097048186e+03 
       2.142572226058e-02       1.167334256664e+03 
       2.156155381514e-02       1.164533160777e+03 
       2.169746471577e-02       1.161691974159e+03 
       2.183345650838e-02       1.158811811654e+03 
       2.196953077651e-02       1.155895064407e+03 
       2.210568914217e-02       1.152939136195e+03 
       2.224193326667e-02       1.149949915998e+03 
       2.237826485153e-02       1.146922755975e+03 
       2.251468563936e-02       1.143861820777e+03 
       2.265119741485e-02       1.140769862262e+03 
       2.278780200570e-02       1.137643103982e+03 
       2.292450128361e-02       1.134483710730e+03 
       2.306129716537e-02       1.131293799029e+03 
       2.319819161386e-02       1.128073954183e+03 
       2.333518663918e-02       1.124825962811e+03 
       2.347228429977e-02       1.121545547726e+03 
       2.360948670358e-02       1.118239669861e+03 
       2.374679600928e-02       1.114907112936e+03 
       2.388421442748e-02       1.111546929250e+03 
       2.402174422201e-02       1.108160746919e+03 
       2.415938771128e-02       1.104750537166e+03 
       2.429714726958e-02       1.101313730390e+03 
       2.443502532852e-02       1.097855413887e+03 
       2.457302437848e-02       1.094375348570e+03 
       2.471114697007e-02       1.090871410335e+03 
       2.484939571572e-02       1.087346003082e+03 
       2.498777329124e-02       1.083800473749e+03 
       2.512628243746e-02       1.080232663842e+03 
       2.526492596194e-02       1.076648322991e+03 
       2.540370674072e-02       1.073044333834e+03 
       2.554262772009e-02       1.069421262962e+03 
       2.568169191854e-02       1.065779977999e+03 
       2.582090242858e-02       1.062121272201e+03 
       2.596026241881e-02       1.058447097423e+03 
       2.609977513597e-02       1.054757663057e+03 
       2.623944390701e-02       1.051054834419e+03 
       2.637927214136e-02       1.047332807220e+03 
       2.651926333315e-02       1.043600576396e+03 
       2.665942106358e-02       1.039852248015e+03 
       2.679974900335e-02       1.036092981990e+03 
       2.694025091517e-02       1.032318927731e+03 
       2.708093065634e-02       1.028535180980e+03 
       2.722179218149e-02       1.024737092610e+03 
       2.736283954531e-02       1.020931759740e+03 
       2.750407690546e-02       1.017113064294e+03 
       2.764550852553e-02       1.013287674447e+03 
       2.778713877818e-02       1.009449148929e+03 
       2.792897214829e-02       1.005605617204e+03 
       2.807101323630e-02       1.001750815091e+03 
       2.821326676166e-02       9.978882410390e+02 
       2.835573756636e-02       9.940193396624e+02 
       2.849843061865e-02       9.901420129682e+02 
       2.864135101690e-02       9.862571394801e+02 
       2.878450399350e-02       9.823698929711e+02 
       2.892789491907e-02       9.784737775169e+02 
       2.907152930670e-02       9.745710838763e+02 
       2.921541281640e-02       9.706694549268e+02 
       2.935955125972e-02       9.667570541066e+02 
       2.950395060459e-02       9.628413920329e+02 
       2.964861698023e-02       9.589225607421e+02 
       2.979355668241e-02       9.550040232918e+02 
       2.993877617879e-02       9.510786306555e+02 
       3.008428211455e-02       9.471510708449e+02 
       3.023008131821e-02       9.432212656493e+02 
       3.037618080774e-02       9.392897476745e+02 
       3.052258779682e-02       9.353549404466e+02 
       3.066930970147e-02       9.314207009440e+02 
       3.081635414687e-02       9.274867932737e+02 
       3.096372897456e-02       9.235465740855e+02 
       3.111144224983e-02       9.196093728388e+02 
       3.125950226953e-02       9.156735433537e+02 
       3.140791757017e-02       9.117390719639e+02 
       3.155669693636e-02       9.078018831433e+02 
       3.170584940966e-02       9.038667841202e+02 
       3.185538429778e-02       8.999318754573e+02 
       3.200531118425e-02       8.960002703943e+02 
       3.215563993846e-02       8.920696481672e+02 
       3.230638072620e-02       8.881406643594e+02 
       3.245754402068e-02       8.842132612727e+02 
       3.260914061403e-02       8.802886101454e+02 
       3.276118162942e-02       8.763650458809e+02 
       3.291367853362e-02       8.724480865246e+02 
       3.306664315032e-02       8.685314888672e+02 
       3.322008767393e-02       8.646171791604e+02 
       3.337402468420e-02       8.607093525208e+02 
       3.352846716144e-02       8.568053088682e+02 
       3.368342850259e-02       8.529002444305e+02 
       3.383892253799e-02       8.490028581831e+02 
       3.399496354914e-02       8.451093351036e+02 
       3.415156628722e-02       8.412190904245e+02 
       3.430874599266e-02       8.373329946830e+02 
       3.446651841573e-02       8.334560957987e+02 
       3.462489983816e-02       8.295802727306e+02 
       3.478390709596e-02       8.257104556874e+02 
       3.494355760347e-02       8.218441105115e+02 
       3.510386937867e-02       8.179844927144e+02 
       3.526486106997e-02       8.141283774730e+02 
       3.542655198438e-02       8.102809706473e+02 
       3.558896211737e-02       8.064377067340e+02 
       3.575211218438e-02       8.025974983814e+02 
       3.591602365412e-02       7.987664117482e+02 
       3.608071878385e-02       7.949379291018e+02 
       3.624622065672e-02       7.911183313838e+02 
       3.641255322133e-02       7.873050053688e+02 
       3.657974133371e-02       7.834947644011e+02 
       3.674781080174e-02       7.796938891232e+02 
       3.691678843252e-02       7.758974336923e+02 
       3.708670208247e-02       7.721033310871e+02 
       3.725758071075e-02       7.683193732466e+02 
       3.742945443605e-02       7.645434764598e+02 
       3.760235459706e-02       7.607702053591e+02 
       3.777631381688e-02       7.570055420696e+02 
       3.795136607180e-02       7.532447266955e+02 
       3.812754676461e-02       7.494896182125e+02 
       3.830489280294e-02       7.457415403569e+02 
       3.848344268310e-02       7.420009754581e+02 
       3.866323657963e-02       7.382633353751e+02 
       3.884431644140e-02       7.345355757261e+02 
       3.902672609446e-02       7.308121901716e+02 
       3.921051135253e-02       7.270926984416e+02 
       3.939572013557e-02       7.233783975876e+02 
       3.958240259735e-02       7.196710078574e+02 
       3.977061126268e-02       7.159688969991e+02 
       3.996040117524e-02       7.122738763530e+02 
       4.015183005710e-02       7.085797358078e+02 
       4.034495848086e-02       7.048933037241e+02 
       4.053985005579e-02       7.012120124183e+02 
       4.073657162917e-02       6.975354061768e+02 
       4.093519350459e-02       6.938619943540e+02 
       4.113578967862e-02       6.901948709526e+02 
       4.133843809796e-02       6.865313962404e+02 
       4.154322093909e-02       6.828698120957e+02 
       4.175022491289e-02       6.792123599620e+02 
       4.195954159683e-02       6.755557344241e+02 
       4.217126779774e-02       6.719056278788e+02 
       4.238550594873e-02       6.682564898328e+02 
       4.260236454389e-02       6.646096334948e+02 
       4.282195861535e-02       6.609640901380e+02 
       4.304441025756e-02       6.573212501877e+02 
       4.326984920439e-02       6.536768259072e+02 
       4.349841346569e-02       6.500347497983e+02 
       4.373025003045e-02       6.463910072867e+02 
       4.396551564516e-02       6.427466295644e+02 
       4.420437767706e-02       6.391025826162e+02 
       4.444701507340e-02       6.354563194523e+02 
       4.469361942959e-02       6.318081023144e+02 
       4.494439618135e-02       6.281563571349e+02 
       4.519956593800e-02       6.244994386066e+02 
       4.545936597719e-02       6.208374521855e+02 
       4.572405192478e-02       6.171723499594e+02 
       4.599389964723e-02       6.134978244267e+02 
       4.626920738928e-02       6.098186043945e+02 
       4.655029819509e-02       6.061295018972e+02 
       4.683752265814e-02       6.024330374263e+02 
       4.713126205384e-02       5.987220244979e+02 
       4.743193191882e-02       5.950041392737e+02 
       4.773998615383e-02       5.912680037430e+02 
       4.805592174215e-02       5.875180094360e+02 
       4.838028419476e-02       5.837514634521e+02 
       4.871367385660e-02       5.799673846335e+02 
       4.905675323735e-02       5.761624152204e+02 
       4.941025556620e-02       5.723346510756e+02 
       4.977499481519e-02       5.684823009351e+02 
       5.015187749221e-02       5.646022435792e+02 
       5.054191657596e-02       5.606910399364e+02 
       5.094624805550e-02       5.567455851464e+02 
       5.136615065107e-02       5.527632681323e+02 
       5.180306943849e-02       5.487391562492e+02 
       5.225864428458e-02       5.446676149426e+02 
       5.273474423734e-02       5.405437073793e+02 
       5.323350931534e-02       5.363609132663e+02 
       5.375740152168e-02       5.321124048624e+02 
       5.430926738696e-02       5.277846955414e+02 
       5.489241493690e-02       5.233721778992e+02 
       5.551070869125e-02       5.188603102203e+02 
       5.616868710997e-02       5.142330397190e+02 
       5.687170773049e-02       5.094678165099e+02 
       5.762612587817e-02       5.045445556331e+02 
       5.843951280896e-02       4.994271487665e+02 
       5.932091747682e-02       4.940772467296e+02 
       6.028117086684e-02       4.884444917942e+02 
       6.133321936070e-02       4.824551398539e+02 
       6.249244755566e-02       4.760210527877e+02 
       6.377690149308e-02       4.690172996622e+02 
       6.520723856982e-02       4.612848912465e+02 
