# Matter power spectrum P(k) at redshift z=3.5
# for k=1.04563e-05 to 1006.13 h/Mpc,
# number of wavenumbers equal to 625
#    1:k (h/Mpc)              2:P (Mpc/h)^3        
       1.045629393498e-05       3.551253504161e+00 
       2.372900639820e-05       7.951416055510e+00 
       3.705038830857e-05       1.231780503140e+01 
       5.045849811123e-05       1.667995128086e+01 
       6.399205400520e-05       2.105798361738e+01 
       7.769080041399e-05       2.546890224782e+01 
       9.159588674793e-05       2.992846135729e+01 
       1.057502637854e-04       3.445200384163e+01 
       1.201991030382e-04       3.905493432428e+01 
       1.349902445026e-04       4.375304178312e+01 
       1.501746781875e-04       4.856275369887e+01 
       1.658070647103e-04       5.350135784888e+01 
       1.819462999697e-04       5.858721157406e+01 
       1.986561283524e-04       6.383994714735e+01 
       2.160058079578e-04       6.928068063822e+01 
       2.340708297436e-04       7.493222576534e+01 
       2.529336900652e-04       8.081931423632e+01 
       2.726847124767e-04       8.696882191204e+01 
       2.934229094968e-04       9.340999588605e+01 
       3.152568678448e-04       1.001746779194e+02 
       3.383056308993e-04       1.072975135672e+02 
       3.626995392886e-04       1.148161332011e+02 
       3.885809741591e-04       1.227712863005e+02 
       4.161049276017e-04       1.312069029067e+02 
       4.454393013340e-04       1.401700495053e+02 
       4.767648093336e-04       1.497107403704e+02 
       5.102743354399e-04       1.598815571543e+02 
       5.461715776932e-04       1.707370267089e+02 
       5.846688044146e-04       1.823327072469e+02 
       6.259835620572e-04       1.947239419599e+02 
       6.703342222355e-04       2.079642595571e+02 
       7.179343443654e-04       2.221034317454e+02 
       7.689859650139e-04       2.371852488247e+02 
       8.236720987643e-04       2.532451275406e+02 
       8.821489263841e-04       2.703077363599e+02 
       9.445383163731e-04       2.883848449163e+02 
       1.010921427124e-03       3.074736695133e+02 
       1.081334123662e-03       3.275559182856e+02 
       1.155764791463e-03       3.485977047667e+02 
       1.234154853213e-03       3.705503782853e+02 
       1.316401945199e-03       3.933521992843e+02 
       1.402365366598e-03       4.169306774658e+02 
       1.491873154658e-03       4.412053188492e+02 
       1.584730011839e-03       4.660904921965e+02 
       1.680725326149e-03       4.914981746499e+02 
       1.779640654398e-03       5.173403838789e+02 
       1.881256229852e-03       5.435311796518e+02 
       1.985356259445e-03       5.699882318395e+02 
       2.091732952843e-03       5.966339058938e+02 
       2.200189356041e-03       6.233957670523e+02 
       2.310541142019e-03       6.502069236464e+02 
       2.422617547090e-03       6.770077882110e+02 
       2.536261645635e-03       7.037439985233e+02 
       2.651330139891e-03       7.303669775986e+02 
       2.767692815208e-03       7.568335938201e+02 
       2.885231781840e-03       7.831059838735e+02 
       3.003840596269e-03       8.091508666333e+02 
       3.123423330440e-03       8.349393544397e+02 
       3.243893637094e-03       8.604463890475e+02 
       3.365173843516e-03       8.856503528880e+02 
       3.487194093980e-03       9.105327068218e+02 
       3.609891552436e-03       9.350776236614e+02 
       3.733209670762e-03       9.592718611656e+02 
       3.857097523654e-03       9.831041746867e+02 
       3.981509208481e-03       1.006565313961e+03 
       4.106403306687e-03       1.029647930691e+03 
       4.231742402400e-03       1.052345925394e+03 
       4.357492653424e-03       1.074655017167e+03 
       4.483623409728e-03       1.096571680370e+03 
       4.610106874634e-03       1.118093942244e+03 
       4.736917804193e-03       1.139220325651e+03 
       4.864033240544e-03       1.159950460932e+03 
       4.991432275435e-03       1.180284747350e+03 
       5.119095840429e-03       1.200223838861e+03 
       5.247006520708e-03       1.219769491619e+03 
       5.375148389705e-03       1.238923309854e+03 
       5.503506862102e-03       1.257687726660e+03 
       5.632068563057e-03       1.276065764217e+03 
       5.760821211709e-03       1.294060181956e+03 
       5.889753517327e-03       1.311674329625e+03 
       6.018855086584e-03       1.328911752152e+03 
       6.148116340685e-03       1.345776023711e+03 
       6.277528441206e-03       1.362271251394e+03 
       6.407083223629e-03       1.378401759484e+03 
       6.536773137714e-03       1.394171195007e+03 
       6.666591193923e-03       1.409583877397e+03 
       6.796530915227e-03       1.424644023641e+03 
       6.926586293688e-03       1.439356069022e+03 
       7.056751751303e-03       1.453724909735e+03 
       7.187022104635e-03       1.467754797684e+03 
       7.317392532840e-03       1.481450063491e+03 
       7.447858548702e-03       1.494815297642e+03 
       7.578415972392e-03       1.507855183435e+03 
       7.709060907633e-03       1.520573506815e+03 
       7.839789720055e-03       1.532975760281e+03 
       7.970599017490e-03       1.545065873888e+03 
       8.101485632030e-03       1.556847604864e+03 
       8.232446603659e-03       1.568326234350e+03 
       8.363479165321e-03       1.579505898107e+03 
       8.494580729256e-03       1.590389832068e+03 
       8.625748874516e-03       1.600983194919e+03 
       8.756981335523e-03       1.611290169771e+03 
       8.888275991580e-03       1.621314685186e+03 
       9.019630857247e-03       1.631060554684e+03 
       9.151044073500e-03       1.640532263148e+03 
       9.282513899606e-03       1.649735541802e+03 
       9.414038705641e-03       1.658671241168e+03 
       9.545616965607e-03       1.667343619321e+03 
       9.677247251078e-03       1.675757100640e+03 
       9.808928225347e-03       1.683915634202e+03 
       9.940658638019e-03       1.691822329555e+03 
       1.007243732001e-02       1.699481238727e+03 
       1.020426317895e-02       1.706895978634e+03 
       1.033613519488e-02       1.714069734612e+03 
       1.046805241631e-02       1.721006628318e+03 
       1.060001395658e-02       1.727708809769e+03 
       1.073201899042e-02       1.734180697107e+03 
       1.086406675084e-02       1.740425373353e+03 
       1.099615652618e-02       1.746445917979e+03 
       1.112828765743e-02       1.752245847279e+03 
       1.126045953569e-02       1.757827749046e+03 
       1.139267159985e-02       1.763195806811e+03 
       1.152492333440e-02       1.768352101515e+03 
       1.165721426741e-02       1.773299361171e+03 
       1.178954396869e-02       1.778042213143e+03 
       1.192191204800e-02       1.782581857784e+03 
       1.205431815347e-02       1.786921612984e+03 
       1.218676197006e-02       1.791065335311e+03 
       1.231924321818e-02       1.795014444828e+03 
       1.245176165238e-02       1.798772404644e+03 
       1.258431706015e-02       1.802342209509e+03 
       1.271690926079e-02       1.805726500046e+03 
       1.284953810435e-02       1.808926882789e+03 
       1.298220347070e-02       1.811946370212e+03 
       1.311490526862e-02       1.814788456969e+03 
       1.324764343495e-02       1.817455485190e+03 
       1.338041793384e-02       1.819949268159e+03 
       1.351322875602e-02       1.822273408811e+03 
       1.364607591820e-02       1.824429800908e+03 
       1.377895946238e-02       1.826420625219e+03 
       1.391187945537e-02       1.828248745587e+03 
       1.404483598826e-02       1.829916599487e+03 
       1.417782917592e-02       1.831427076492e+03 
       1.431085915661e-02       1.832780947372e+03 
       1.444392609162e-02       1.833982209688e+03 
       1.457703016484e-02       1.835031617463e+03 
       1.471017158253e-02       1.835932771030e+03 
       1.484335057300e-02       1.836686773704e+03 
       1.497656738636e-02       1.837297101921e+03 
       1.510982229432e-02       1.837764368399e+03 
       1.524311559000e-02       1.838092571814e+03 
       1.537644758773e-02       1.838282820754e+03 
       1.550981862299e-02       1.838337281748e+03 
       1.564322905223e-02       1.838258742323e+03 
       1.577667925283e-02       1.838048231293e+03 
       1.591016962304e-02       1.837708735055e+03 
       1.604370058190e-02       1.837242083552e+03 
       1.617727256927e-02       1.836650151750e+03 
       1.631088604585e-02       1.835934680968e+03 
       1.644454149313e-02       1.835098134744e+03 
       1.657823941353e-02       1.834142405646e+03 
       1.671198033042e-02       1.833069527542e+03 
       1.684576478820e-02       1.831881368526e+03 
       1.697959335243e-02       1.830578417917e+03 
       1.711346660996e-02       1.829163765153e+03 
       1.724738516904e-02       1.827640912351e+03 
       1.738134965950e-02       1.826010248593e+03 
       1.751536073295e-02       1.824271901106e+03 
       1.764941906294e-02       1.822429552441e+03 
       1.778352534518e-02       1.820484588728e+03 
       1.791768029781e-02       1.818439188097e+03 
       1.805188466159e-02       1.816294182590e+03 
       1.818613920020e-02       1.814052298861e+03 
       1.832044470050e-02       1.811713998817e+03 
       1.845480197288e-02       1.809281834804e+03 
       1.858921185148e-02       1.806756533270e+03 
       1.872367519461e-02       1.804141418518e+03 
       1.885819288507e-02       1.801437145752e+03 
       1.899276583048e-02       1.798643793114e+03 
       1.912739496373e-02       1.795765589118e+03 
       1.926208124330e-02       1.792801346544e+03 
       1.939682565376e-02       1.789757355036e+03 
       1.953162920614e-02       1.786627277821e+03 
       1.966649293841e-02       1.783422721945e+03 
       1.980141791593e-02       1.780136215504e+03 
       1.993640523197e-02       1.776774255558e+03 
       2.007145600820e-02       1.773337280040e+03 
       2.020657139520e-02       1.769824252369e+03 
       2.034175257302e-02       1.766239508606e+03 
       2.047700075176e-02       1.762584678263e+03 
       2.061231717210e-02       1.758859793778e+03 
       2.074770310596e-02       1.755066448515e+03 
       2.088315985710e-02       1.751206247118e+03 
       2.101868876175e-02       1.747280188344e+03 
       2.115429118930e-02       1.743290445398e+03 
       2.128996854299e-02       1.739241004810e+03 
       2.142572226058e-02       1.735125024532e+03 
       2.156155381514e-02       1.730952153074e+03 
       2.169746471577e-02       1.726719740274e+03 
       2.183345650838e-02       1.722429448574e+03 
       2.196953077651e-02       1.718084831709e+03 
       2.210568914217e-02       1.713682021554e+03 
       2.224193326667e-02       1.709229782483e+03 
       2.237826485153e-02       1.704721204612e+03 
       2.251468563936e-02       1.700162469837e+03 
       2.265119741485e-02       1.695557677273e+03 
       2.278780200570e-02       1.690901212751e+03 
       2.292450128361e-02       1.686196286232e+03 
       2.306129716537e-02       1.681446056910e+03 
       2.319819161386e-02       1.676651377431e+03 
       2.333518663918e-02       1.671814911702e+03 
       2.347228429977e-02       1.666930310105e+03 
       2.360948670358e-02       1.662007900682e+03 
       2.374679600928e-02       1.657045884926e+03 
       2.388421442748e-02       1.652042856606e+03 
       2.402174422201e-02       1.647001236709e+03 
       2.415938771128e-02       1.641923940849e+03 
       2.429714726958e-02       1.636807157530e+03 
       2.443502532852e-02       1.631658452239e+03 
       2.457302437848e-02       1.626477462666e+03 
       2.471114697007e-02       1.621261033726e+03 
       2.484939571572e-02       1.616012737342e+03 
       2.498777329124e-02       1.610734586171e+03 
       2.512628243746e-02       1.605423346808e+03 
       2.526492596194e-02       1.600087577749e+03 
       2.540370674072e-02       1.594722649849e+03 
       2.554262772009e-02       1.589329402701e+03 
       2.568169191854e-02       1.583909127176e+03 
       2.582090242858e-02       1.578463001153e+03 
       2.596026241881e-02       1.572993917198e+03 
       2.609977513597e-02       1.567502205898e+03 
       2.623944390701e-02       1.561990620095e+03 
       2.637927214136e-02       1.556450536000e+03 
       2.651926333315e-02       1.550895333552e+03 
       2.665942106358e-02       1.545316252173e+03 
       2.679974900335e-02       1.539720950802e+03 
       2.694025091517e-02       1.534103718173e+03 
       2.708093065634e-02       1.528472120699e+03 
       2.722179218149e-02       1.522819251112e+03 
       2.736283954531e-02       1.517155653802e+03 
       2.750407690546e-02       1.511472246893e+03 
       2.764550852553e-02       1.505778938065e+03 
       2.778713877818e-02       1.500066155993e+03 
       2.792897214829e-02       1.494345983036e+03 
       2.807101323630e-02       1.488609104272e+03 
       2.821326676166e-02       1.482860730933e+03 
       2.835573756636e-02       1.477103000048e+03 
       2.849843061865e-02       1.471332807738e+03 
       2.864135101690e-02       1.465551451398e+03 
       2.878450399350e-02       1.459766617170e+03 
       2.892789491907e-02       1.453968645179e+03 
       2.907152930670e-02       1.448160978823e+03 
       2.921541281640e-02       1.442354929391e+03 
       2.935955125972e-02       1.436532941398e+03 
       2.950395060459e-02       1.430706157244e+03 
       2.964861698023e-02       1.424874729714e+03 
       2.979355668241e-02       1.419043797673e+03 
       2.993877617879e-02       1.413202737977e+03 
       3.008428211455e-02       1.407358505140e+03 
       3.023008131821e-02       1.401511013057e+03 
       3.037618080774e-02       1.395661052789e+03 
       3.052258779682e-02       1.389806254191e+03 
       3.066930970147e-02       1.383952360457e+03 
       3.081635414687e-02       1.378099029080e+03 
       3.096372897456e-02       1.372236385312e+03 
       3.111144224983e-02       1.366378292364e+03 
       3.125950226953e-02       1.360522305623e+03 
       3.140791757017e-02       1.354668390978e+03 
       3.155669693636e-02       1.348810533365e+03 
       3.170584940966e-02       1.342955825512e+03 
       3.185538429778e-02       1.337101487067e+03 
       3.200531118425e-02       1.331252122618e+03 
       3.215563993846e-02       1.325404289124e+03 
       3.230638072620e-02       1.319558960955e+03 
       3.245754402068e-02       1.313716052146e+03 
       3.260914061403e-02       1.307877304282e+03 
       3.276118162942e-02       1.302040245314e+03 
       3.291367853362e-02       1.296213074619e+03 
       3.306664315032e-02       1.290386512785e+03 
       3.322008767393e-02       1.284563424654e+03 
       3.337402468420e-02       1.278750052054e+03 
       3.352846716144e-02       1.272942363622e+03 
       3.368342850259e-02       1.267133235411e+03 
       3.383892253799e-02       1.261335580245e+03 
       3.399496354914e-02       1.255543753936e+03 
       3.415156628722e-02       1.249756875829e+03 
       3.430874599266e-02       1.243976225758e+03 
       3.446651841573e-02       1.238209327140e+03 
       3.462489983816e-02       1.232444100618e+03 
       3.478390709596e-02       1.226687879948e+03 
       3.494355760347e-02       1.220936882772e+03 
       3.510386937867e-02       1.215195961486e+03 
       3.526486106997e-02       1.209460314901e+03 
       3.542655198438e-02       1.203737687015e+03 
       3.558896211737e-02       1.198021295568e+03 
       3.575211218438e-02       1.192309523229e+03 
       3.591602365412e-02       1.186611377063e+03 
       3.608071878385e-02       1.180917176776e+03 
       3.624622065672e-02       1.175236251777e+03 
       3.641255322133e-02       1.169564720974e+03 
       3.657974133371e-02       1.163897847437e+03 
       3.674781080174e-02       1.158244959314e+03 
       3.691678843252e-02       1.152598707268e+03 
       3.708670208247e-02       1.146956025786e+03 
       3.725758071075e-02       1.141328491615e+03 
       3.742945443605e-02       1.135712991660e+03 
       3.760235459706e-02       1.130101463265e+03 
       3.777631381688e-02       1.124502786139e+03 
       3.795136607180e-02       1.118909891689e+03 
       3.812754676461e-02       1.113325537164e+03 
       3.830489280294e-02       1.107751682416e+03 
       3.848344268310e-02       1.102189053367e+03 
       3.866323657963e-02       1.096630808556e+03 
       3.884431644140e-02       1.091087303758e+03 
       3.902672609446e-02       1.085550341117e+03 
       3.921051135253e-02       1.080019206008e+03 
       3.939572013557e-02       1.074495819366e+03 
       3.958240259735e-02       1.068982743928e+03 
       3.977061126268e-02       1.063477540535e+03 
       3.996040117524e-02       1.057982901436e+03 
       4.015183005710e-02       1.052489596898e+03 
       4.034495848086e-02       1.047007760405e+03 
       4.053985005579e-02       1.041533583971e+03 
       4.073657162917e-02       1.036066381612e+03 
       4.093519350459e-02       1.030603932334e+03 
       4.113578967862e-02       1.025150831157e+03 
       4.133843809796e-02       1.019703151615e+03 
       4.154322093909e-02       1.014258279799e+03 
       4.175022491289e-02       1.008819542315e+03 
       4.195954159683e-02       1.003382018692e+03 
       4.217126779774e-02       9.979541722731e+02 
       4.238550594873e-02       9.925277450022e+02 
       4.260236454389e-02       9.871046887921e+02 
       4.282195861535e-02       9.816835611878e+02 
       4.304441025756e-02       9.762664272406e+02 
       4.326984920439e-02       9.708469127835e+02 
       4.349841346569e-02       9.654308591669e+02 
       4.373025003045e-02       9.600123013812e+02 
       4.396551564516e-02       9.545927739503e+02 
       4.420437767706e-02       9.491737028505e+02 
       4.444701507340e-02       9.437513091533e+02 
       4.469361942959e-02       9.383259864024e+02 
       4.494439618135e-02       9.328953946140e+02 
       4.519956593800e-02       9.274570872394e+02 
       4.545936597719e-02       9.220112290337e+02 
       4.572405192478e-02       9.165607150523e+02 
       4.599389964723e-02       9.110961868826e+02 
       4.626920738928e-02       9.056246595418e+02 
       4.655029819509e-02       9.001384438725e+02 
       4.683752265814e-02       8.946412651049e+02 
       4.713126205384e-02       8.891224687409e+02 
       4.743193191882e-02       8.835934566319e+02 
       4.773998615383e-02       8.780373139801e+02 
       4.805592174215e-02       8.724605880195e+02 
       4.838028419476e-02       8.668592520100e+02 
       4.871367385660e-02       8.612318646723e+02 
       4.905675323735e-02       8.555734366126e+02 
       4.941025556620e-02       8.498811111674e+02 
       4.977499481519e-02       8.441522485124e+02 
       5.015187749221e-02       8.383821723783e+02 
       5.054191657596e-02       8.325657880522e+02 
       5.094624805550e-02       8.266984561158e+02 
       5.136615065107e-02       8.207762748798e+02 
       5.180306943849e-02       8.147918849223e+02 
       5.225864428458e-02       8.087369111503e+02 
       5.273474423734e-02       8.026039757192e+02 
       5.323350931534e-02       7.963833667386e+02 
       5.375740152168e-02       7.900648962290e+02 
       5.430926738696e-02       7.836285100453e+02 
       5.489241493690e-02       7.770658048676e+02 
       5.551070869125e-02       7.703551777641e+02 
       5.616868710997e-02       7.634727441056e+02 
       5.687170773049e-02       7.563849505509e+02 
       5.762612587817e-02       7.490619789198e+02 
       5.843951280896e-02       7.414501821479e+02 
       5.932091747682e-02       7.334926151441e+02 
       6.028117086684e-02       7.251145203706e+02 
       6.133321936070e-02       7.162063991043e+02 
       6.249244755566e-02       7.066373951099e+02 
       6.377690149308e-02       6.962219074691e+02 
       6.520723856982e-02       6.847237608473e+02 
