# dimensionless total lensed [l(l+1)/2pi] C_l's
# for l=2 to 2500, i.e. number of multipoles equal to 2499
#
# -> if you prefer output in CAMB/HealPix/LensPix units/order, set 'format' to 'camb' in input file
# -> if you don't want to see such a header, set 'headers' to 'no' in input file
# -> for CMB lensing (phi), these are C_l^phi-phi for the lensing potential.
#    Remember the conversion factors:
#    C_l^dd (deflection) = l(l+1) C_l^phi-phi
#    C_l^gg (shear/convergence) = 1/4 (l(l+1))^2 C_l^phi-phi
#
# 1:l     2:TT                     3:EE                     4:TE                     5:BB                     6:phiphi                 7:TPhi                   8:Ephi               
    2       1.291659589477e-10       4.641960318853e-15       3.517040819819e-13       1.914358432245e-19       7.738999987330e-09       4.335370993679e-10      -1.876977040587e-12 
    3       1.226588205184e-10       6.743435698110e-15       4.175528709898e-13       3.829600723603e-19       4.785421788932e-09       3.075853970331e-10      -1.530755315933e-12 
    4       1.162869680641e-10       6.655533476406e-15       4.090882503194e-13       6.384615264981e-19       3.327170746469e-09       2.329738674852e-10      -1.103806086375e-12 
    5       1.114485629624e-10       5.101488422917e-15       3.634068919290e-13       9.580534372515e-19       2.479825074465e-09       1.840206093677e-10      -7.098254857071e-13 
    6       1.080884498293e-10       3.223689403615e-15       3.037896451763e-13       1.341873468662e-18       1.933918953900e-09       1.496069612503e-10      -3.867984196742e-13 
    7       1.058978634462e-10       1.803453037907e-15       2.450035797906e-13       1.790081287773e-18       1.558243399942e-09       1.242757698193e-10      -1.482650263323e-13 
    8       1.046559354509e-10       1.039306521725e-15       1.948356290572e-13       2.302855797389e-18       1.286400751812e-09       1.050564434748e-10       6.884733431867e-15 
    9       1.041295511039e-10       7.455814368945e-16       1.567650550207e-13       2.880392104173e-18       1.082029767794e-09       9.013852264339e-11       8.907072818158e-14 
   10       1.041009512515e-10       6.498016109417e-16       1.314543241574e-13       3.522898301457e-18       9.239073083396e-10       7.829954303429e-11       1.143824354842e-13 
   11       1.044968906204e-10       5.804641819336e-16       1.175973255233e-13       4.230592149940e-18       7.796946763218e-10       6.911887608350e-11       1.013085244083e-13 
   12       1.052235559080e-10       4.971776376511e-16       1.127774774463e-13       5.003697740765e-18       6.805436906768e-10       6.094673604505e-11       6.743163448884e-14 
   13       1.061452682523e-10       4.274048489269e-16       1.143591368064e-13       5.842442224213e-18       5.991790160504e-10       5.435898292474e-11       2.790459075714e-14 
   14       1.073177865787e-10       3.974916123365e-16       1.198877995546e-13       6.747052683594e-18       5.315228858067e-10       4.875577603689e-11      -7.090872358192e-15 
   15       1.086267028531e-10       4.056193435088e-16       1.272883601659e-13       7.717753227858e-18       4.746045866477e-10       4.393704507870e-11      -3.147878603637e-14 
   16       1.100643966935e-10       4.331506526596e-16       1.351501591850e-13       8.754762368283e-18       4.262377548612e-10       3.982674246132e-11      -4.324720691451e-14 
   17       1.116121925989e-10       4.661552996223e-16       1.427343371711e-13       9.858290734603e-18       3.847724636371e-10       3.627654430564e-11      -4.373398013533e-14 
   18       1.132515662727e-10       5.053434599155e-16       1.498089338493e-13       1.102853903588e-17       3.488065547477e-10       3.316129297655e-11      -3.637933551236e-14 
   19       1.149962584441e-10       5.594117581752e-16       1.565267427498e-13       1.226569726654e-17       3.177624072238e-10       3.043297634602e-11      -2.479219409780e-14 
   20       1.168144208987e-10       6.383260269518e-16       1.631852219132e-13       1.356994209641e-17       2.904393779616e-10       2.799718874747e-11      -1.325075973515e-14 
   21       1.186967543048e-10       7.431460626894e-16       1.701013317027e-13       1.494143849183e-17       2.664040983264e-10       2.583257041131e-11      -4.196475723392e-15 
   22       1.206153689693e-10       8.710084555002e-16       1.775686925747e-13       1.638033689836e-17       2.450771745493e-10       2.390652801503e-11       6.632732805522e-16 
   23       1.225863917712e-10       1.019645129280e-15       1.855742369004e-13       1.788677641736e-17       2.261622686681e-10       2.219422784169e-11       1.293536031156e-15 
   24       1.246179715855e-10       1.186824207638e-15       1.939402490525e-13       1.946088193644e-17       2.092191175580e-10       2.065251896951e-11      -1.447406084847e-15 
   25       1.267013347455e-10       1.373224782638e-15       2.023970642599e-13       2.110276924461e-17       1.940459288552e-10       1.926513314518e-11      -6.166742074284e-15 
   26       1.288113635313e-10       1.580005779753e-15       2.105871760417e-13       2.281254146865e-17       1.803655630985e-10       1.801088250444e-11      -1.111467722112e-14 
   27       1.309590342484e-10       1.806200322931e-15       2.181491838237e-13       2.459029432630e-17       1.680120930821e-10       1.687788776754e-11      -1.510314328435e-14 
   28       1.331559922143e-10       2.050370244358e-15       2.247193159048e-13       2.643611383653e-17       1.567707756930e-10       1.584877200233e-11      -1.718263969178e-14 
   29       1.354063648651e-10       2.313606153498e-15       2.301389669620e-13       2.835008605451e-17       1.465829152814e-10       1.491560362092e-11      -1.730098873189e-14 
   30       1.376986155057e-10       2.598012795400e-15       2.343156634471e-13       3.033228907663e-17       1.373377580248e-10       1.406319320054e-11      -1.578541265578e-14 
   31       1.400117027719e-10       2.905890760814e-15       2.371912641930e-13       3.238279358303e-17       1.288450934308e-10       1.326946308635e-11      -1.312862225030e-14 
   32       1.423512976478e-10       3.239035258997e-15       2.388320266704e-13       3.450167696796e-17       1.210601594532e-10       1.253287545807e-11      -9.975816608509e-15 
   33       1.447247608580e-10       3.599197665042e-15       2.393780733666e-13       3.668901431454e-17       1.139271071468e-10       1.185390581787e-11      -7.158158200545e-15 
   34       1.471324712318e-10       3.988005148758e-15       2.389815221806e-13       3.894487762418e-17       1.073451375287e-10       1.122876466055e-11      -5.486948248239e-15 
   35       1.495742009958e-10       4.406022766261e-15       2.376584102150e-13       4.126934585472e-17       1.012798171152e-10       1.065435687546e-11      -4.975829116766e-15 
   36       1.520432824723e-10       4.853343912326e-15       2.353863763881e-13       4.366249873517e-17       9.568168047904e-11       1.012420121523e-11      -5.343221710542e-15 
   37       1.545295071866e-10       5.330017824538e-15       2.321258678177e-13       4.612441567557e-17       9.047695876284e-11       9.629415819026e-12      -6.248186276412e-15 
   38       1.570380721087e-10       5.836730931860e-15       2.277598752226e-13       4.865518016882e-17       8.565176453184e-11       9.168180745699e-12      -7.422499331800e-15 
   39       1.595758181658e-10       6.374338791889e-15       2.221322540739e-13       5.125487742100e-17       8.119043926783e-11       8.738873546611e-12      -8.573234350749e-15 
   40       1.621455569641e-10       6.943682263069e-15       2.150616667328e-13       5.392359365619e-17       7.704996460575e-11       8.337242290183e-12      -9.342093980941e-15 
   41       1.647468280072e-10       7.545545899005e-15       2.063803397506e-13       5.666141490729e-17       7.317485008312e-11       7.958020310617e-12      -9.410111465770e-15 
   42       1.673795981420e-10       8.180519537054e-15       1.960695959027e-13       5.946842200514e-17       6.955335460856e-11       7.600953871558e-12      -8.862616350415e-15 
   43       1.700409742847e-10       8.849089765231e-15       1.841655815001e-13       6.234469459523e-17       6.617555541071e-11       7.266350764981e-12      -7.936167361917e-15 
   44       1.727237003549e-10       9.551672684770e-15       1.707236792542e-13       6.529031284902e-17       6.301648233275e-11       6.953304963441e-12      -6.923313193258e-15 
   45       1.754197186630e-10       1.028864301342e-14       1.558018641900e-13       6.830535269556e-17       6.004495983421e-11       6.660191957136e-12      -6.109683631725e-15 
   46       1.781330341451e-10       1.106044099498e-14       1.394022827922e-13       7.138986918385e-17       5.725610316615e-11       6.386573069906e-12      -5.554878861800e-15 
   47       1.808700388426e-10       1.186749079310e-14       1.215140525639e-13       7.454390860310e-17       5.464650314250e-11       6.131685977601e-12      -5.251818236069e-15 
   48       1.836357431948e-10       1.271016828778e-14       1.021295355664e-13       7.776751306659e-17       5.220443005034e-11       5.893829852954e-12      -5.186909216026e-15 
   49       1.864336170493e-10       1.358879906260e-14       8.124440161220e-14       8.106072049004e-17       4.990921592271e-11       5.670297226641e-12      -5.339606416683e-15 
   50       1.892655305378e-10       1.450365661148e-14       5.885089979379e-14       8.442355928844e-17       4.773744120023e-11       5.458115022811e-12      -5.678803523444e-15 
   51       1.921319266371e-10       1.545496105487e-14       3.491537334849e-14       8.785603081979e-17       4.568490757467e-11       5.256662879361e-12      -6.151877472623e-15 
   52       1.950314206252e-10       1.644287659581e-14       9.394750691826e-15       9.135812213849e-17       4.374956164617e-11       5.065647758773e-12      -6.691908219156e-15 
   53       1.979605536818e-10       1.746750931489e-14      -1.775744668414e-14       9.492981059657e-17       4.192492135451e-11       4.884327543531e-12      -7.220009949499e-15 
   54       2.009136385986e-10       1.852890516780e-14      -4.659136062494e-14       9.857106357348e-17       4.019977845858e-11       4.711480975980e-12      -7.644741084936e-15 
   55       2.038849238406e-10       1.962706479673e-14      -7.715286497910e-14       1.022818387302e-16       3.856159129702e-11       4.545803382895e-12      -7.886808007966e-15 
   56       2.068760687388e-10       2.076199686095e-14      -1.094568768756e-13       1.060620854644e-16       3.700833164805e-11       4.387277834091e-12      -7.961714408831e-15 
   57       2.098902550454e-10       2.193367444717e-14      -1.435078645242e-13       1.099117433437e-16       3.553905975326e-11       4.236091956352e-12      -7.916610385446e-15 
   58       2.129299687103e-10       2.314201809836e-14      -1.793073928527e-13       1.138307413682e-16       3.415034148799e-11       4.092228814318e-12      -7.807184463370e-15 
   59       2.159969359164e-10       2.438689446629e-14      -2.168540609180e-13       1.178189977214e-16       3.283609461797e-11       3.955453439357e-12      -7.698059068850e-15 
   60       2.190920591154e-10       2.566811496417e-14      -2.561434393168e-13       1.218764195198e-16       3.158743505583e-11       3.825299358445e-12      -7.663186001860e-15 
   61       2.222158091388e-10       2.698543686227e-14      -2.971688627855e-13       1.260029140838e-16       3.039512863946e-11       3.701223116493e-12      -7.767259380030e-15 
   62       2.253696490835e-10       2.833856991042e-14      -3.399241574907e-13       1.301984262692e-16       2.925793736925e-11       3.583138849433e-12      -8.004184500342e-15 
   63       2.285548179813e-10       2.972716881782e-14      -3.844014176288e-13       1.344629091099e-16       2.817588227875e-11       3.470980343127e-12      -8.345436571855e-15 
   64       2.317718544139e-10       3.115082969639e-14      -4.305901695037e-13       1.387963131507e-16       2.714773356104e-11       3.364535648542e-12      -8.757621775620e-15 
   65       2.350205470198e-10       3.260908879093e-14      -4.784773360723e-13       1.431985865634e-16       2.617093949652e-11       3.263438940937e-12      -9.202270436420e-15 
   66       2.382998850007e-10       3.410142120923e-14      -5.280472014903e-13       1.476696752618e-16       2.524155538072e-11       3.167162379043e-12      -9.635630194519e-15 
   67       2.416080086284e-10       3.562723965218e-14      -5.792813756568e-13       1.522095230181e-16       2.435417245210e-11       3.075007964240e-12      -1.000845917741e-14 
   68       2.449430636538e-10       3.718586707089e-14      -6.321600770226e-13       1.568180885050e-16       2.350335370376e-11       2.986290108584e-12      -1.027694424626e-14 
   69       2.483060762028e-10       3.877645104292e-14      -6.866663620998e-13       1.614954001732e-16       2.268843802392e-11       2.900944493173e-12      -1.043848705642e-14 
   70       2.516985741748e-10       4.039802968542e-14      -7.427826932079e-13       1.662415127526e-16       2.190958629623e-11       2.819028522835e-12      -1.050283095610e-14 
   71       2.551217089795e-10       4.204955429109e-14      -8.004896943308e-13       1.710564918485e-16       2.116632869616e-11       2.740538328232e-12      -1.048165380190e-14 
   72       2.585762291613e-10       4.372988739145e-14      -8.597661493776e-13       1.759404144901e-16       2.045753215803e-11       2.665405502504e-12      -1.038864565934e-14 
   73       2.620624540236e-10       4.543780082016e-14      -9.205890004434e-13       1.808933696796e-16       1.978136784202e-11       2.593493837914e-12      -1.023958650333e-14 
   74       2.655802472536e-10       4.717197377625e-14      -9.829333460696e-13       1.859154589401e-16       1.913527860123e-11       2.524596062496e-12      -1.005242391872e-14 
   75       2.691289905465e-10       4.893099088748e-14      -1.046772439504e-12       1.910067968650e-16       1.851594644871e-11       2.458430576695e-12      -9.847350800767e-15 
   76       2.727079746876e-10       5.071344608789e-14      -1.112077034501e-12       1.961675143271e-16       1.792011138555e-11       2.394713374601e-12      -9.642922414256e-15 
   77       2.763177134369e-10       5.251828040074e-14      -1.178813288833e-12       2.013977675693e-16       1.734727218514e-11       2.333396162659e-12      -9.443418350360e-15 
   78       2.799588224317e-10       5.434450251953e-14      -1.246944473536e-12       2.066977317763e-16       1.679742129231e-11       2.274465935937e-12      -9.249306420553e-15 
   79       2.836316054570e-10       5.619108868740e-14      -1.316431576584e-12       2.120675991544e-16       1.627022232267e-11       2.217871951907e-12      -9.060995388405e-15 
   80       2.873360366303e-10       5.805698293028e-14      -1.387233287769e-12       2.175075795342e-16       1.576499498750e-11       2.163524008810e-12      -8.878831453929e-15 
   81       2.910717425863e-10       5.994109729000e-14      -1.459305983581e-12       2.230179009747e-16       1.528070001865e-11       2.111290724023e-12      -8.703094737932e-15 
   82       2.948379846618e-10       6.184231205732e-14      -1.532603712094e-12       2.285988103657e-16       1.481592409338e-11       2.060997812426e-12      -8.533995766363e-15 
   83       2.986336410799e-10       6.375947600510e-14      -1.607078177841e-12       2.342505740314e-16       1.436886475927e-11       2.012426364766e-12      -8.371671954665e-15 
   84       3.024576401880e-10       6.569136139636e-14      -1.682680243105e-12       2.399734645393e-16       1.393776564832e-11       1.965366753891e-12      -8.216254564848e-15 
   85       3.063103817154e-10       6.763651992820e-14      -1.759364750855e-12       2.457677172935e-16       1.352233803879e-11       1.919794392489e-12      -8.068090031382e-15 
   86       3.101925195618e-10       6.959340322277e-14      -1.837086477345e-12       2.516335678176e-16       1.312254841446e-11       1.875720091200e-12      -7.927549051278e-15 
   87       3.141045216101e-10       7.156040540972e-14      -1.915798697016e-12       2.575712652757e-16       1.273818173208e-11       1.833136246240e-12      -7.794957076746e-15 
   88       3.180466594916e-10       7.353586259920e-14      -1.995453192861e-12       2.635810728435e-16       1.236883391416e-11       1.792016052688e-12      -7.670591983964e-15 
   89       3.220189983512e-10       7.551805235490e-14      -2.076000266790e-12       2.696632680795e-16       1.201390434174e-11       1.752312717776e-12      -7.554681741842e-15 
   90       3.260213866136e-10       7.750519316704e-14      -2.157388750002e-12       2.758181432968e-16       1.167258834714e-11       1.713958674174e-12      -7.447402080787e-15 
   91       3.300534457479e-10       7.949544392540e-14      -2.239566013347e-12       2.820460059341e-16       1.134386970674e-11       1.676864793281e-12      -7.348874161469e-15 
   92       3.341145600336e-10       8.148690339231e-14      -2.322477977695e-12       2.883471789273e-16       1.102651313372e-11       1.640919598515e-12      -7.259162243587e-15 
   93       3.382041009739e-10       8.347767536229e-14      -2.406069236412e-12       2.947219991549e-16       1.071935564769e-11       1.606016967797e-12      -7.178182396192e-15 
   94       3.423221613751e-10       8.546607649579e-14      -2.490283421324e-12       3.011708117002e-16       1.042224711757e-11       1.572145715815e-12      -7.105417986452e-15 
   95       3.464689132639e-10       8.745045891473e-14      -2.575062911218e-12       3.076939754086e-16       1.013523795447e-11       1.539312093081e-12      -7.040156891052e-15 
   96       3.506443761571e-10       8.942914767078e-14      -2.660348736386e-12       3.142918650773e-16       9.858289480085e-12       1.507512106875e-12      -6.981573137164e-15 
   97       3.548484100479e-10       9.140044111997e-14      -2.746080590529e-12       3.209648717999e-16       9.591270522091e-12       1.476731125595e-12      -6.928723350101e-15 
   98       3.590807083926e-10       9.336261129746e-14      -2.832196842662e-12       3.277134033117e-16       9.333954009521e-12       1.446943483120e-12      -6.880543200959e-15 
   99       3.633407910967e-10       9.531390429217e-14      -2.918634549026e-12       3.345378843342e-16       9.086013568176e-12       1.418112083159e-12      -6.835843854267e-15 
  100       3.676279975015e-10       9.725254062146e-14      -3.005329464988e-12       3.414387569206e-16       8.847020116027e-12       1.390188003607e-12      -6.793308415635e-15 
  101       3.719414793705e-10       9.917671560583e-14      -3.092216056948e-12       3.484164808003e-16       8.616438458606e-12       1.363110100900e-12      -6.751488379397e-15 
  102       3.762801938758e-10       1.010845997436e-13      -3.179227514247e-12       3.554715337239e-16       8.393623884413e-12       1.336804614371e-12      -6.708800076265e-15 
  103       3.806428965846e-10       1.029743390856e-13      -3.266295761073e-12       3.626044118085e-16       8.177818760305e-12       1.311184770604e-12      -6.663521120970e-15 
  104       3.850284023456e-10       1.048440933844e-13      -3.353352395575e-12       3.698156350425e-16       7.968323363304e-12       1.286171497434e-12      -6.614173348727e-15 
  105       3.894364231907e-10       1.066921556041e-13      -3.440331626054e-12       3.771057639058e-16       7.765041990795e-12       1.261759604869e-12      -6.560738189128e-15 
  106       3.938668310732e-10       1.085168493281e-13      -3.527167755452e-12       3.844753856482e-16       7.568004618129e-12       1.237959848272e-12      -6.503599613250e-15 
  107       3.983193960550e-10       1.103164932068e-13      -3.613794311390e-12       3.919251097269e-16       7.377197777976e-12       1.214778455350e-12      -6.443172992213e-15 
