# Matter power spectrum P(k) at redshift z=4.5
# for k=1.04575e-05 to 1006.15 h/Mpc,
# number of wavenumbers equal to 625
#    1:k (h/Mpc)              2:P (Mpc/h)^3        
       1.045749810485e-05       2.142307428768e+00 
       2.373043761528e-05       4.843863313106e+00 
       3.705205197341e-05       7.543912424304e+00 
       5.046040160262e-05       1.025333857532e+01 
       6.399420676399e-05       1.298149325463e+01 
       7.769321405898e-05       1.573725283749e+01 
       9.159857522556e-05       1.852941276077e+01 
       1.057532435558e-04       2.136690282171e+01 
       1.202023933008e-04       2.425893865490e+01 
       1.349938674647e-04       2.721514723655e+01 
       1.501786593808e-04       3.024568223836e+01 
       1.658114333596e-04       3.336133755987e+01 
       1.819510894196e-04       3.657366257951e+01 
       1.986613765579e-04       3.989508254575e+01 
       2.160115580438e-04       4.333902490886e+01 
       2.340771306401e-04       4.692005232320e+01 
       2.529405972213e-04       5.065400208229e+01 
       2.726922886571e-04       5.455813130674e+01 
       2.934312256600e-04       5.865126448567e+01 
       3.152660040981e-04       6.295394002768e+01 
       3.383156775180e-04       6.748854935369e+01 
       3.627105977775e-04       7.227945948049e+01 
       3.885931583209e-04       7.735310656594e+01 
       4.161183645581e-04       8.273804452819e+01 
       4.454541324261e-04       8.846492673194e+01 
       4.767811907995e-04       9.456639625320e+01 
       5.102924387431e-04       1.010768524455e+02 
       5.461915893473e-04       1.080320622972e+02 
       5.846909251320e-04       1.154685824027e+02 
       6.260080050474e-04       1.234229648576e+02 
       6.703612104985e-04       1.319307293650e+02 
       7.179641068864e-04       1.410251088490e+02 
       7.690187318622e-04       1.507356025963e+02 
       8.237080952403e-04       1.610864128671e+02 
       8.821883665213e-04       1.720948750785e+02 
       9.445813962622e-04       1.837700272059e+02 
       1.010968318642e-03       1.961114844356e+02 
       1.081384969221e-03       2.091087631737e+02 
       1.155819700313e-03       2.227411668418e+02 
       1.234213899658e-03       2.369782759978e+02 
       1.316465168833e-03       2.517809982944e+02 
       1.402432774394e-03       2.671030687811e+02 
       1.491944724558e-03       2.828928408349e+02 
       1.584805697329e-03       2.990951683790e+02 
       1.680805061300e-03       3.156532154335e+02 
       1.779724358910e-03       3.325100787690e+02 
       1.881343813733e-03       3.496101185520e+02 
       1.985447627100e-03       3.668999736790e+02 
       2.091828006459e-03       3.843292919757e+02 
       2.200287998256e-03       4.018511795265e+02 
       2.310643277916e-03       4.194218952670e+02 
       2.422723085604e-03       4.370025061375e+02 
       2.536370500476e-03       4.545574491594e+02 
       2.651442230081e-03       4.720547348774e+02 
       2.767808065318e-03       4.894657690307e+02 
       2.885350122018e-03       5.067653323000e+02 
       3.003961962113e-03       5.239311115773e+02 
       3.123547662764e-03       5.409436354572e+02 
       3.244020881646e-03       5.577859290429e+02 
       3.365303950641e-03       5.744432779453e+02 
       3.487327018288e-03       5.909029978322e+02 
       3.610027252458e-03       6.071541907217e+02 
       3.733348108622e-03       6.231876527547e+02 
       3.857238664757e-03       6.389954786247e+02 
       3.981653021215e-03       6.545710527671e+02 
       4.106549762154e-03       6.699089873243e+02 
       4.231891474164e-03       6.850046994988e+02 
       4.357644317282e-03       6.998547936025e+02 
       4.483777643502e-03       7.144563789149e+02 
       4.610263657980e-03       7.288076002028e+02 
       4.737077118433e-03       7.429069564285e+02 
       4.864195068510e-03       7.567536975342e+02 
       4.991596601329e-03       7.703476241743e+02 
       5.119262649698e-03       7.836887019171e+02 
       5.247175799933e-03       7.967776550832e+02 
       5.375320126495e-03       8.096151187228e+02 
       5.503681045008e-03       8.222022840381e+02 
       5.632245181484e-03       8.345407382677e+02 
       5.761000255846e-03       8.466319123678e+02 
       5.889934978076e-03       8.584776494250e+02 
       6.019038955502e-03       8.700799274881e+02 
       6.148302609931e-03       8.814407847851e+02 
       6.277717103485e-03       8.925626044793e+02 
       6.407274272154e-03       9.034479194422e+02 
       6.536966566162e-03       9.140987830381e+02 
       6.666786996400e-03       9.245179830451e+02 
       6.796729086234e-03       9.347079385314e+02 
       6.926786828089e-03       9.446713498274e+02 
       7.056954644300e-03       9.544111140356e+02 
       7.187227351743e-03       9.639297829559e+02 
       7.317600129859e-03       9.732299576804e+02 
       7.448068491705e-03       9.823144240504e+02 
       7.578628257697e-03       9.911860591285e+02 
       7.709275531791e-03       9.998471502067e+02 
       7.840006679834e-03       1.008301125729e+03 
       7.970818309857e-03       1.016550391538e+03 
       8.101707254141e-03       1.024597253750e+03 
       8.232670552846e-03       1.032445025519e+03 
       8.363705439076e-03       1.040096279642e+03 
       8.494809325229e-03       1.047552993451e+03 
       8.625979790500e-03       1.054818425948e+03 
       8.757214569446e-03       1.061895182390e+03 
       8.888511541496e-03       1.068785738992e+03 
       9.019868721331e-03       1.075492476306e+03 
       9.151284250039e-03       1.082018310904e+03 
       9.282756386994e-03       1.088365388108e+03 
       9.414283502372e-03       1.094536452774e+03 
       9.545864070270e-03       1.100533685253e+03 
       9.677496662351e-03       1.106359650609e+03 
       9.809179941995e-03       1.112016845265e+03 
       9.940912658886e-03       1.117507244059e+03 
       1.007269364402e-02       1.122833440325e+03 
       1.020452180510e-02       1.127997728811e+03 
       1.033639612222e-02       1.133004117569e+03 
       1.046831564399e-02       1.137851733705e+03 
       1.060027948378e-02       1.142543516132e+03 
       1.073228681639e-02       1.147082315637e+03 
       1.086433687490e-02       1.151470114380e+03 
       1.099642894770e-02       1.155708904996e+03 
       1.112856237583e-02       1.159800949670e+03 
       1.126073655044e-02       1.163747920651e+03 
       1.139295091047e-02       1.167552544613e+03 
       1.152520494046e-02       1.171216154962e+03 
       1.165749816853e-02       1.174740508919e+03 
       1.178983016452e-02       1.178128661639e+03 
       1.192220053825e-02       1.181381329598e+03 
       1.205460893787e-02       1.184500749628e+03 
       1.218705504840e-02       1.187489179368e+03 
       1.231953859028e-02       1.190348545210e+03 
       1.245205931810e-02       1.193079173637e+03 
       1.258461701939e-02       1.195684824245e+03 
       1.271721151347e-02       1.198166054682e+03 
       1.284984265044e-02       1.200524908486e+03 
       1.298251031021e-02       1.202762436553e+03 
       1.311521440158e-02       1.204881776752e+03 
       1.324795486143e-02       1.206883716591e+03 
       1.338073165393e-02       1.208769679492e+03 
       1.351354476986e-02       1.210542017482e+03 
       1.364639422595e-02       1.212201937496e+03 
       1.377928006424e-02       1.213750877945e+03 
       1.391220235156e-02       1.215190630008e+03 
       1.404516117903e-02       1.216522934127e+03 
       1.417815666155e-02       1.217749474418e+03 
       1.431118893742e-02       1.218870710215e+03 
       1.444425816794e-02       1.219889791375e+03 
       1.457736453706e-02       1.220806599916e+03 
       1.471050825103e-02       1.221623658176e+03 
       1.484368953822e-02       1.222341659456e+03 
       1.497690864875e-02       1.222962797996e+03 
       1.511016585436e-02       1.223487654721e+03 
       1.524346144820e-02       1.223918678961e+03 
       1.537679574464e-02       1.224256637413e+03 
       1.551016907917e-02       1.224502953145e+03 
       1.564358180828e-02       1.224659363468e+03 
       1.577703430938e-02       1.224726746212e+03 
       1.591052698073e-02       1.224706792513e+03 
       1.604406024142e-02       1.224600825666e+03 
       1.617763453133e-02       1.224410154004e+03 
       1.631125031118e-02       1.224135773656e+03 
       1.644490806251e-02       1.223779318501e+03 
       1.657860828775e-02       1.223342103491e+03 
       1.671235151029e-02       1.222825375566e+03 
       1.684613827459e-02       1.222230434936e+03 
       1.697996914622e-02       1.221557470549e+03 
       1.711384471207e-02       1.220808753041e+03 
       1.724776558040e-02       1.219986479049e+03 
       1.738173238109e-02       1.219090889632e+03 
       1.751574576578e-02       1.218121998317e+03 
       1.764980640804e-02       1.217082303853e+03 
       1.778391500363e-02       1.215972827377e+03 
       1.791807227070e-02       1.214794878032e+03 
       1.805227895006e-02       1.213548961590e+03 
       1.818653580541e-02       1.212237058572e+03 
       1.832084362365e-02       1.210859361411e+03 
       1.845520321520e-02       1.209417668674e+03 
       1.858961541424e-02       1.207912338883e+03 
       1.872408107911e-02       1.206345546785e+03 
       1.885860109264e-02       1.204717913948e+03 
       1.899317636251e-02       1.203029286305e+03 
       1.912780782161e-02       1.201282688981e+03 
       1.926249642850e-02       1.199476991099e+03 
       1.939724316775e-02       1.197616871585e+03 
       1.953204905044e-02       1.195697585846e+03 
       1.966691511458e-02       1.193727158947e+03 
       1.980184242558e-02       1.191700517485e+03 
       1.993683207674e-02       1.189622066384e+03 
       2.007188518977e-02       1.187492173491e+03 
       2.020700291530e-02       1.185309590197e+03 
       2.034218643342e-02       1.183077715033e+03 
       2.047743695426e-02       1.180797528328e+03 
       2.061275571856e-02       1.178469217354e+03 
       2.074814399829e-02       1.176093447858e+03 
       2.088360309724e-02       1.173671323311e+03 
       2.101913435170e-02       1.171203749135e+03 
       2.115473913110e-02       1.168691529736e+03 
       2.129041883873e-02       1.166138147388e+03 
       2.142617491241e-02       1.163539644174e+03 
       2.156200882525e-02       1.160900785593e+03 
       2.169792208640e-02       1.158220501581e+03 
       2.183391624183e-02       1.155500015729e+03 
       2.196999287514e-02       1.152741182472e+03 
       2.210615360838e-02       1.149941997699e+03 
       2.224240010293e-02       1.147108020090e+03 
       2.237873406036e-02       1.144234798647e+03 
       2.251515722336e-02       1.141326362240e+03 
       2.265167137665e-02       1.138385389482e+03 
       2.278827834800e-02       1.135407723537e+03 
       2.292498000920e-02       1.132396454259e+03 
       2.306177827707e-02       1.129354020000e+03 
       2.319867511457e-02       1.126278272358e+03 
       2.333567253186e-02       1.123172635476e+03 
       2.347277258747e-02       1.120035273812e+03 
       2.360997738941e-02       1.116869784960e+03 
       2.374728909641e-02       1.113674360202e+03 
       2.388470991917e-02       1.110453131210e+03 
       2.402224212160e-02       1.107203523575e+03 
       2.415988802217e-02       1.103926888542e+03 
       2.429764999526e-02       1.100622541750e+03 
       2.443553047256e-02       1.097295342021e+03 
       2.457353194453e-02       1.093944856974e+03 
       2.471165696187e-02       1.090568963307e+03 
       2.484990813710e-02       1.087170054389e+03 
       2.498828814611e-02       1.083749784372e+03 
       2.512679972984e-02       1.080305905595e+03 
       2.526544569592e-02       1.076842490062e+03 
       2.540422892050e-02       1.073359464079e+03 
       2.554315234997e-02       1.069855444307e+03 
       2.568221900292e-02       1.066331811503e+03 
       2.582143197196e-02       1.062789231961e+03 
       2.596079442580e-02       1.059229825628e+03 
       2.610030961129e-02       1.055653702459e+03 
       2.623998085549e-02       1.052062865664e+03 
       2.637981156794e-02       1.048452304729e+03 
       2.651980524290e-02       1.044828411600e+03 
       2.665996546168e-02       1.041187995603e+03 
       2.680029589511e-02       1.037535322884e+03 
       2.694080030602e-02       1.033866586235e+03 
       2.708148255186e-02       1.030186846822e+03 
       2.722234658737e-02       1.026494454865e+03 
       2.736339646738e-02       1.022788170434e+03 
       2.750463634970e-02       1.019069297569e+03 
       2.764607049807e-02       1.015343028356e+03 
       2.778770328530e-02       1.011602357974e+03 
       2.792953919641e-02       1.007856738973e+03 
       2.807158283200e-02       1.004097228990e+03 
       2.821383891169e-02       1.000328369337e+03 
       2.835631227763e-02       9.965515442872e+02 
       2.849900789825e-02       9.927674644956e+02 
       2.864193087208e-02       9.889770390595e+02 
       2.878508643170e-02       9.851754091478e+02 
       2.892847994792e-02       9.813700329452e+02 
       2.907211693401e-02       9.775554015422e+02 
       2.921600305018e-02       9.737409835492e+02 
       2.936014410820e-02       9.699143081130e+02 
       2.950454607619e-02       9.660851288348e+02 
       2.964921508358e-02       9.622503492975e+02 
       2.979415742637e-02       9.584136463120e+02 
       2.993937957245e-02       9.545706334982e+02 
       3.008488816723e-02       9.507240916635e+02 
       3.023069003948e-02       9.468743777973e+02 
       3.037679220740e-02       9.430215376693e+02 
       3.052320188494e-02       9.391660081690e+02 
       3.066992648838e-02       9.353093571034e+02 
       3.081697364318e-02       9.314521026074e+02 
       3.096435119115e-02       9.275882771285e+02 
       3.111206719787e-02       9.237253302167e+02 
       3.126012996051e-02       9.198629144185e+02 
       3.140854801586e-02       9.160021628035e+02 
       3.155733014887e-02       9.121374408960e+02 
       3.170648540141e-02       9.082730929170e+02 
       3.185602308155e-02       9.044095398430e+02 
       3.200595277315e-02       9.005494275836e+02 
       3.215628434598e-02       8.966861487481e+02 
       3.230702796621e-02       8.928260530483e+02 
       3.245819410741e-02       8.889670523287e+02 
       3.260979356215e-02       8.851064982217e+02 
       3.276183745398e-02       8.812510929952e+02 
       3.291433725013e-02       8.773983121542e+02 
       3.306730477471e-02       8.735460449069e+02 
       3.322075222260e-02       8.696938135367e+02 
       3.337469217403e-02       8.658483432734e+02 
       3.352913760980e-02       8.620074321332e+02 
       3.368410192736e-02       8.581655512689e+02 
       3.383959895760e-02       8.543283957177e+02 
       3.399564298254e-02       8.504948448189e+02 
       3.415224875396e-02       8.466638054349e+02 
       3.430943151287e-02       8.428392740069e+02 
       3.446720701016e-02       8.390142183067e+02 
       3.462559152820e-02       8.351979107288e+02 
       3.478460190367e-02       8.313831319195e+02 
       3.494425555159e-02       8.275742398745e+02 
       3.510457049068e-02       8.237679467912e+02 
       3.526556537007e-02       8.199707539663e+02 
       3.542725949757e-02       8.161744782072e+02 
       3.558967286947e-02       8.123835824601e+02 
       3.575282620204e-02       8.085964885951e+02 
       3.591674096486e-02       8.048159389584e+02 
       3.608143941613e-02       8.010408514985e+02 
       3.624694463996e-02       7.972704511254e+02 
       3.641328058594e-02       7.935070343989e+02 
       3.658047211114e-02       7.897474362417e+02 
       3.674854502456e-02       7.859944629875e+02 
       3.691752613441e-02       7.822446219561e+02 
       3.708744329831e-02       7.785009142910e+02 
       3.725832547669e-02       7.747624347773e+02 
       3.743020278953e-02       7.710300958554e+02 
       3.760310657689e-02       7.673024900910e+02 
       3.777706946333e-02       7.635840918532e+02 
       3.795212542663e-02       7.598661159643e+02 
       3.812830987117e-02       7.561555211855e+02 
       3.830565970624e-02       7.524502431259e+02 
       3.848421342989e-02       7.487526103702e+02 
       3.866401121852e-02       7.450582482461e+02 
       3.884509502293e-02       7.413673130404e+02 
       3.902750867120e-02       7.376854994200e+02 
       3.921129797920e-02       7.340075806342e+02 
       3.939651086917e-02       7.303322555530e+02 
       3.958319749728e-02       7.266624825477e+02 
       3.977141039084e-02       7.229993828579e+02 
       3.996120459624e-02       7.193405441586e+02 
       4.015263783837e-02       7.156860216438e+02 
       4.034577069283e-02       7.120341534215e+02 
       4.054066677207e-02       7.083885586703e+02 
       4.073739292676e-02       7.047446774105e+02 
       4.093601946408e-02       7.011062221390e+02 
       4.113662038441e-02       6.974733646738e+02 
       4.133927363850e-02       6.938425029799e+02 
       4.154406140720e-02       6.902121515746e+02 
       4.175107040600e-02       6.865942226992e+02 
       4.196039221729e-02       6.829648596759e+02 
       4.217212365321e-02       6.793449264084e+02 
       4.238636715250e-02       6.757260733048e+02 
       4.260323121533e-02       6.721069337333e+02 
       4.282283088035e-02       6.684942854805e+02 
       4.304528824899e-02       6.648768343599e+02 
       4.327073306268e-02       6.612640494412e+02 
       4.349930333937e-02       6.576518814530e+02 
       4.373114607684e-02       6.540360993999e+02 
       4.396641803108e-02       6.504211283456e+02 
       4.420528657961e-02       6.468052742295e+02 
       4.444793068082e-02       6.431867319401e+02 
       4.469454194227e-02       6.395659406475e+02 
       4.494532581288e-02       6.359406641579e+02 
       4.520050291638e-02       6.323143368274e+02 
       4.546031054620e-02       6.286808266486e+02 
       4.572500434546e-02       6.250427039952e+02 
       4.599486019958e-02       6.213966224178e+02 
       4.627017637418e-02       6.177441278173e+02 
       4.655127593643e-02       6.140838639698e+02 
       4.683850950528e-02       6.104158985907e+02 
       4.713225838436e-02       6.067351381045e+02 
       4.743293814168e-02       6.030433058456e+02 
       4.774100271297e-02       5.993383847212e+02 
       4.805694912064e-02       5.956182632643e+02 
       4.838132291952e-02       5.918829499405e+02 
       4.871472450393e-02       5.881311116607e+02 
       4.905781643925e-02       5.843554452832e+02 
       4.941133201783e-02       5.805604364628e+02 
       4.977608528353e-02       5.767399753572e+02 
       5.015298282618e-02       5.728933153735e+02 
       5.054303771845e-02       5.690152277075e+02 
       5.094738605757e-02       5.651034623472e+02 
       5.136730668884e-02       5.611561365891e+02 
       5.180424483333e-02       5.571681484998e+02 
       5.225984052739e-02       5.531324510943e+02 
       5.273596301788e-02       5.490466099168e+02 
       5.323475255774e-02       5.449013342030e+02 
       5.375867142783e-02       5.406902654407e+02 
       5.431056648953e-02       5.364036713393e+02 
       5.489374616450e-02       5.320323311638e+02 
       5.551207544878e-02       5.275636144202e+02 
       5.617009337762e-02       5.229801217830e+02 
       5.687315818582e-02       5.182627246343e+02 
       5.762762604582e-02       5.133860504419e+02 
       5.844106924229e-02       5.083204676685e+02 
       5.932253797381e-02       5.030245196745e+02 
       6.028286471725e-02       4.974451422054e+02 
       6.133499760901e-02       4.915127856152e+02 
       6.249432323971e-02       4.851345624250e+02 
       6.377888977286e-02       4.781867446288e+02 
       6.520935658723e-02       4.705029690013e+02 
