# dimensionless total [l(l+1)/2pi] C_l's
# for l=2 to 3000, i.e. number of multipoles equal to 2999
#
# -> if you prefer output in CAMB/HealPix/LensPix units/order, set 'format' to 'camb' in input file
# -> if you don't want to see such a header, set 'headers' to 'no' in input file
# -> for CMB lensing (phi), these are C_l^phi-phi for the lensing potential.
#    Remember the conversion factors:
#    C_l^dd (deflection) = l(l+1) C_l^phi-phi
#    C_l^gg (shear/convergence) = 1/4 (l(l+1))^2 C_l^phi-phi
#
# 1:l     2:TT                     3:EE                     4:TE                     5:BB                     6:phiphi                 7:TPhi                   8:Ephi               
    2       1.367745838753e-10       4.938855319755e-15       3.763818492847e-13       0.000000000000e+00       8.039889636862e-09       4.494914151766e-10      -1.995984998593e-12 
    3       1.295548385677e-10       7.148029486286e-15       4.448230575339e-13       0.000000000000e+00       4.961132574656e-09       3.183916109169e-10      -1.621674541933e-12 
    4       1.225547023318e-10       7.037299292535e-15       4.344099482109e-13       0.000000000000e+00       3.443312362182e-09       2.408090251166e-10      -1.166572203606e-12 
    5       1.172261862191e-10       5.384212398094e-15       3.849490897687e-13       0.000000000000e+00       2.562755843176e-09       1.899638951028e-10      -7.490311194885e-13 
    6       1.134905182565e-10       3.396987539042e-15       3.211368237134e-13       0.000000000000e+00       1.995845391118e-09       1.542557836541e-10      -4.079194860840e-13 
    7       1.110117938557e-10       1.896840838096e-15       2.585285350228e-13       0.000000000000e+00       1.606202705481e-09       1.280034661082e-10      -1.566903401896e-13 
    8       1.095493575284e-10       1.089774040066e-15       2.052512815424e-13       0.000000000000e+00       1.324758725908e-09       1.081119670176e-10       6.393686271297e-15 
    9       1.088481590757e-10       7.786187769619e-16       1.648843813088e-13       0.000000000000e+00       1.113384855123e-09       9.268451558733e-11       9.265968993579e-14 
   10       1.086809750748e-10       6.762596021293e-16       1.380432015515e-13       0.000000000000e+00       9.499231078346e-10       8.044556338864e-11       1.192300475726e-13 
   11       1.089643689091e-10       6.022717510290e-16       1.233009684985e-13       0.000000000000e+00       8.015079774067e-10       7.100988621301e-11       1.056413873389e-13 
   12       1.096023936533e-10       5.139476807829e-16       1.180838241538e-13       0.000000000000e+00       6.991577762444e-10       6.257208723758e-11       7.029870823361e-14 
   13       1.104487406676e-10       4.397880595044e-16       1.195927752736e-13       0.000000000000e+00       6.152195712832e-10       5.577908698679e-11       2.909011277806e-14 
   14       1.115598320150e-10       4.072308182322e-16       1.252601778948e-13       0.000000000000e+00       5.454641646249e-10       5.000537378699e-11      -7.366952352103e-15 
   15       1.128164651949e-10       4.143610319269e-16       1.328844071764e-13       0.000000000000e+00       4.868115929382e-10       4.503223682729e-11      -3.277832978283e-14 
   16       1.142100679382e-10       4.417708308999e-16       1.409933045123e-13       0.000000000000e+00       4.369963788701e-10       4.079860595228e-11      -4.505076528336e-14 
   17       1.157223410144e-10       4.748573580279e-16       1.488362490417e-13       0.000000000000e+00       3.943099036837e-10       3.715046742448e-11      -4.558020480355e-14 
   18       1.173321174229e-10       5.143293791536e-16       1.561332607917e-13       0.000000000000e+00       3.573015857965e-10       3.394798303652e-11      -3.794189805779e-14 
   19       1.190523948578e-10       5.691529592845e-16       1.630481066490e-13       0.000000000000e+00       3.253717848577e-10       3.114041601826e-11      -2.588873167342e-14 
   20       1.208489357360e-10       6.496004631910e-16       1.699124847261e-13       0.000000000000e+00       2.972807317590e-10       2.863343625835e-11      -1.387325902301e-14 
   21       1.227136289814e-10       7.568598675814e-16       1.770434071670e-13       0.000000000000e+00       2.725796937623e-10       2.640873167821e-11      -4.441083022840e-15 
   22       1.246192533660e-10       8.880641622163e-16       1.847267875454e-13       0.000000000000e+00       2.506702460685e-10       2.443564391788e-11       6.254665428924e-16 
   23       1.265809310447e-10       1.040675251111e-15       1.929744111770e-13       0.000000000000e+00       2.312458724935e-10       2.268305049903e-11       1.295076325514e-15 
   24       1.286045179212e-10       1.212129053781e-15       2.016322785456e-13       0.000000000000e+00       2.138523770162e-10       2.109941233275e-11      -1.531622385397e-15 
   25       1.306822423288e-10       1.403228249001e-15       2.103799366941e-13       0.000000000000e+00       1.982811726256e-10       1.967255735630e-11      -6.408598815443e-15 
   26       1.327901021222e-10       1.615368703204e-15       2.187928009023e-13       0.000000000000e+00       1.842464547168e-10       1.838803900015e-11      -1.152345605332e-14 
   27       1.349382560909e-10       1.847511006201e-15       2.265308245830e-13       0.000000000000e+00       1.715769935414e-10       1.723063676903e-11      -1.565081794414e-14 
   28       1.371365722013e-10       2.098057045706e-15       2.332749319544e-13       0.000000000000e+00       1.600515589828e-10       1.617672790538e-11      -1.781279860634e-14 
   29       1.393893461150e-10       2.368101300707e-15       2.388596415345e-13       0.000000000000e+00       1.496093458565e-10       1.521845985800e-11      -1.795162867975e-14 
   30       1.416853335292e-10       2.659811501125e-15       2.431652810521e-13       0.000000000000e+00       1.401361873114e-10       1.434288270026e-11      -1.639811940565e-14 
   31       1.440033498982e-10       2.975558359294e-15       2.461074572924e-13       0.000000000000e+00       1.314363908579e-10       1.352995794849e-11      -1.365460011078e-14 
   32       1.463492760444e-10       3.317182914616e-15       2.477569626836e-13       0.000000000000e+00       1.234636981207e-10       1.277773707176e-11      -1.039032020428e-14 
   33       1.487304330335e-10       3.686478704730e-15       2.482708661931e-13       0.000000000000e+00       1.161605604884e-10       1.208518811116e-11      -7.470643739460e-15 
   34       1.511469029631e-10       4.085112197916e-15       2.478185989206e-13       0.000000000000e+00       1.094233452676e-10       1.144689982632e-11      -5.740021549925e-15 
   35       1.535987906997e-10       4.513658266821e-15       2.464175150934e-13       0.000000000000e+00       1.032165301581e-10       1.085959913786e-11      -5.210637284992e-15 
   36       1.560797476289e-10       4.972207575543e-15       2.440412511171e-13       0.000000000000e+00       9.748921154336e-11       1.031703479837e-11      -5.586507875333e-15 
   37       1.585796563158e-10       5.460805349047e-15       2.406457092567e-13       0.000000000000e+00       9.216558893782e-11       9.810533432834e-12      -6.510944231386e-15 
   38       1.611037539575e-10       5.980148724830e-15       2.361107242725e-13       0.000000000000e+00       8.723129052900e-11       9.338403921935e-12      -7.709241872266e-15 
   39       1.636587019176e-10       6.531107723441e-15       2.302769846126e-13       0.000000000000e+00       8.267016042636e-11       8.899106535105e-12      -8.883887841078e-15 
   40       1.662468290787e-10       7.114537123237e-15       2.229593983523e-13       0.000000000000e+00       7.843802484724e-11       8.488436836542e-12      -9.670967226424e-15 
   41       1.688670591875e-10       7.731228272355e-15       2.139870567640e-13       0.000000000000e+00       7.447794505858e-11       8.101127779666e-12      -9.746239035010e-15 
   42       1.715192548039e-10       8.381748385499e-15       2.033429673635e-13       0.000000000000e+00       7.077781249001e-11       7.736843308213e-12      -9.194919898855e-15 
   43       1.742004480604e-10       9.066547023262e-15       1.910668708072e-13       0.000000000000e+00       6.732739662054e-11       7.395743729484e-12      -8.255257778762e-15 
   44       1.769031432984e-10       9.785994340659e-15       1.772185593958e-13       0.000000000000e+00       6.410106975057e-11       7.076714158676e-12      -7.222021789067e-15 
   45       1.796190346110e-10       1.054042580839e-14       1.618599751653e-13       0.000000000000e+00       6.106685906646e-11       6.777914945849e-12      -6.383486262276e-15 
   46       1.823524282364e-10       1.133030263178e-14       1.449924725252e-13       0.000000000000e+00       5.821971202432e-11       6.498881029599e-12      -5.801880289138e-15 
   47       1.851101511888e-10       1.215609184724e-14       1.266027121585e-13       0.000000000000e+00       5.555609558269e-11       6.238868415410e-12      -5.473102819265e-15 
   48       1.878976219516e-10       1.301821988056e-14       1.066800867997e-13       0.000000000000e+00       5.306396960184e-11       5.996184139877e-12      -5.387046685456e-15 
   49       1.907186868763e-10       1.391707099856e-14       8.521674982831e-14       0.000000000000e+00       5.072215556702e-11       5.768117254054e-12      -5.527183636935e-15 
   50       1.935754762094e-10       1.485296894965e-14       6.220167244760e-14       0.000000000000e+00       4.850666480663e-11       5.551683371537e-12      -5.865675359057e-15 
   51       1.964683056575e-10       1.582611960264e-14       3.760084718334e-14       0.000000000000e+00       4.641317273835e-11       5.346256686695e-12      -6.348104781583e-15 
   52       1.993954653079e-10       1.683665006147e-14       1.137176027375e-14       0.000000000000e+00       4.443955380256e-11       5.151533088530e-12      -6.903882961155e-15 
   53       2.023530388469e-10       1.788462183159e-14      -1.653135299364e-14       0.000000000000e+00       4.257915858064e-11       4.966749035620e-12      -7.449750192275e-15 
   54       2.053347408812e-10       1.897002848049e-14      -4.615776069645e-14       0.000000000000e+00       4.082051002393e-11       4.790650824875e-12      -7.889150498731e-15 
   55       2.083342606417e-10       2.009281896691e-14      -7.755235163497e-14       0.000000000000e+00       3.915077058945e-11       4.621898576714e-12      -8.138233502270e-15 
   56       2.113533475761e-10       2.125297977460e-14      -1.107291160134e-13       0.000000000000e+00       3.756784818028e-11       4.460466116073e-12      -8.212857191835e-15 
   57       2.143954494478e-10       2.245046908460e-14      -1.456915189143e-13       0.000000000000e+00       3.607076550177e-11       4.306535023702e-12      -8.162102882603e-15 
   58       2.174633183287e-10       2.368519158410e-14      -1.824399950270e-13       0.000000000000e+00       3.465599920386e-11       4.160076894388e-12      -8.043944425462e-15 
   59       2.205589455721e-10       2.495699712701e-14      -2.209718841117e-13       0.000000000000e+00       3.331732302850e-11       4.020839542707e-12      -7.925660128734e-15 
   60       2.236834967869e-10       2.626567939463e-14      -2.612813664637e-13       0.000000000000e+00       3.204565095700e-11       3.888333208787e-12      -7.884244679874e-15 
   61       2.268376655969e-10       2.761097873884e-14      -3.033604461895e-13       0.000000000000e+00       3.083154085422e-11       3.761991300602e-12      -7.987075411411e-15 
   62       2.300229748212e-10       2.899259448753e-14      -3.472023049409e-13       0.000000000000e+00       2.967371694184e-11       3.641725989418e-12      -8.227908066918e-15 
   63       2.332406532965e-10       3.041017303713e-14      -3.927985898686e-13       0.000000000000e+00       2.857219065377e-11       3.527473413132e-12      -8.577180178728e-15 
   64       2.364911921483e-10       3.186330273093e-14      -4.401384015673e-13       0.000000000000e+00       2.752569794020e-11       3.419022051528e-12      -9.000278659341e-15 
   65       2.397742930523e-10       3.335151265254e-14      -4.892082627869e-13       0.000000000000e+00       2.653162683053e-11       3.316004469943e-12      -9.457325208406e-15 
   66       2.430888164956e-10       3.487427141912e-14      -5.399920871425e-13       0.000000000000e+00       2.558594499626e-11       3.217889062941e-12      -9.902961719705e-15 
   67       2.464327300379e-10       3.643098597482e-14      -5.924711478251e-13       0.000000000000e+00       2.468312731392e-11       3.123971797979e-12      -1.028613568814e-14 
   68       2.498040122654e-10       3.802096980456e-14      -6.466252742315e-13       0.000000000000e+00       2.381762046099e-11       3.033560968690e-12      -1.056142855205e-14 
   69       2.532036929970e-10       3.964334279374e-14      -7.024367933557e-13       0.000000000000e+00       2.298874323266e-11       2.946593381393e-12      -1.072618589090e-14 
   70       2.566333389890e-10       4.129710881660e-14      -7.598873344871e-13       0.000000000000e+00       2.219665359127e-11       2.863128765830e-12      -1.079055984682e-14 
   71       2.600941259402e-10       4.298118256725e-14      -8.189566720656e-13       0.000000000000e+00       2.144086695477e-11       2.783164552222e-12      -1.076671104736e-14 
   72       2.635868111964e-10       4.469438757092e-14      -8.796227257978e-13       0.000000000000e+00       2.072022306987e-11       2.706632551251e-12      -1.066888922822e-14 
   73       2.671117064532e-10       4.643545419527e-14      -9.418615607711e-13       0.000000000000e+00       2.003285288532e-11       2.633395634035e-12      -1.051351385600e-14 
   74       2.706686504597e-10       4.820301766159e-14      -1.005647387569e-12       0.000000000000e+00       1.937614542510e-11       2.563244412102e-12      -1.031925475090e-14 
   75       2.742569817220e-10       4.999561605610e-14      -1.070952562388e-12       0.000000000000e+00       1.874671466164e-11       2.495893917375e-12      -1.010711270942e-14 
   76       2.778759479583e-10       5.181179802486e-14      -1.137746940269e-12       0.000000000000e+00       1.814123404202e-11       2.431056067508e-12      -9.896359981112e-15 
   77       2.815260810053e-10       5.365047292731e-14      -1.205995798387e-12       0.000000000000e+00       1.755918898390e-11       2.368679656774e-12      -9.691328843367e-15 
   78       2.852080242051e-10       5.551062121841e-14      -1.275661532516e-12       0.000000000000e+00       1.700056845781e-11       2.308748300192e-12      -9.492349141709e-15 
   79       2.889220998522e-10       5.739119068580e-14      -1.346704257374e-12       0.000000000000e+00       1.646502677566e-11       2.251206793177e-12      -9.299670503925e-15 
   80       2.926682908530e-10       5.929109671018e-14      -1.419081793474e-12       0.000000000000e+00       1.595186825588e-11       2.195959345560e-12      -9.113458065742e-15 
   81       2.964462223851e-10       6.120922252575e-14      -1.492749653977e-12       0.000000000000e+00       1.546003188858e-11       2.142867815602e-12      -8.933788196499e-15 
   82       3.002551435568e-10       6.314441948058e-14      -1.567661031536e-12       0.000000000000e+00       1.498807600067e-11       2.091749944016e-12      -8.760644224826e-15 
   83       3.040939090666e-10       6.509550729707e-14      -1.643766785154e-12       0.000000000000e+00       1.453416292104e-11       2.042377587980e-12      -8.593912164315e-15 
   84       3.079614232915e-10       6.706122843210e-14      -1.721016876058e-12       0.000000000000e+00       1.409650207777e-11       1.994532796958e-12      -8.433515322744e-15 
   85       3.118580973151e-10       6.904010189386e-14      -1.799364977657e-12       0.000000000000e+00       1.367479727988e-11       1.948190589593e-12      -8.279853132419e-15 
   86       3.157846009406e-10       7.103054555572e-14      -1.878764609260e-12       0.000000000000e+00       1.326901236409e-11       1.903363380392e-12      -8.133427570087e-15 
   87       3.197414113248e-10       7.303091939829e-14      -1.959167766040e-12       0.000000000000e+00       1.287892657751e-11       1.860045049839e-12      -7.994708830034e-15 
   88       3.237288024095e-10       7.503952499841e-14      -2.040524930231e-12       0.000000000000e+00       1.250412694747e-11       1.818210150543e-12      -7.864133383932e-15 
   89       3.277468343529e-10       7.705460501815e-14      -2.122785082336e-12       0.000000000000e+00       1.214400065149e-11       1.777813113388e-12      -7.742102040696e-15 
   90       3.317953429608e-10       7.907434269373e-14      -2.205895712328e-12       0.000000000000e+00       1.179772738709e-11       1.738787453681e-12      -7.628978006330e-15 
   91       3.358739291182e-10       8.109686132454e-14      -2.289802830856e-12       0.000000000000e+00       1.146427174170e-11       1.701044977300e-12      -7.525084943783e-15 
   92       3.399819482203e-10       8.312022376214e-14      -2.374450980449e-12       0.000000000000e+00       1.114237556259e-11       1.664474986843e-12      -7.430705032798e-15 
   93       3.441187433882e-10       8.514249774278e-14      -2.459783390844e-12       0.000000000000e+00       1.083085435733e-11       1.628971909539e-12      -7.345934994779e-15 
   94       3.482844081922e-10       8.716196423511e-14      -2.545742447370e-12       0.000000000000e+00       1.052955406198e-11       1.594524658440e-12      -7.270233611558e-15 
   95       3.524791196356e-10       8.917693962900e-14      -2.632269314052e-12       0.000000000000e+00       1.023852473321e-11       1.561139305942e-12      -7.202802249620e-15 
   96       3.567028974662e-10       9.118571307151e-14      -2.719303808768e-12       0.000000000000e+00       9.957725928779e-12       1.528811461249e-12      -7.142716993704e-15 
   97       3.609555969542e-10       9.318654685972e-14      -2.806784416427e-12       0.000000000000e+00       9.687023250854e-12       1.497525866664e-12      -7.088924756966e-15 
   98       3.652369016698e-10       9.517767683352e-14      -2.894648302158e-12       0.000000000000e+00       9.426184889245e-12       1.467255993872e-12      -7.040239391135e-15 
   99       3.695463162609e-10       9.715731276840e-14      -2.982831324487e-12       0.000000000000e+00       9.174878164682e-12       1.437963640238e-12      -6.995337796674e-15 
  100       3.738831592313e-10       9.912363876828e-14      -3.071268048520e-12       0.000000000000e+00       8.932666072079e-12       1.409598525089e-12      -6.952756032947e-15 
  101       3.782465557175e-10       1.010748136583e-13      -3.159891759126e-12       0.000000000000e+00       8.699003823797e-12       1.382097886010e-12      -6.910885428371e-15 
  102       3.826354302675e-10       1.030089713777e-13      -3.248634474119e-12       0.000000000000e+00       8.473235392911e-12       1.355386075127e-12      -6.867968690582e-15 
  103       3.870484996176e-10       1.049242213724e-13      -3.337426957439e-12       0.000000000000e+00       8.254590056479e-12       1.329374155402e-12      -6.822096016595e-15 
  104       3.914845432448e-10       1.068186872401e-13      -3.426199652048e-12       0.000000000000e+00       8.042355990578e-12       1.303981022112e-12      -6.771630201743e-15 
  105       3.959432722006e-10       1.086906277644e-13      -3.514885593731e-12       0.000000000000e+00       7.836435207652e-12       1.279200886294e-12      -6.716555745998e-15 
  106       4.004245647258e-10       1.105383330388e-13      -3.603417917311e-12       0.000000000000e+00       7.636857487750e-12       1.255044197138e-12      -6.657305588882e-15 
  107       4.049281948376e-10       1.123600884783e-13      -3.691728995101e-12       0.000000000000e+00       7.443608528043e-12       1.231516765687e-12      -6.594349199354e-15 
