# Matter power spectrum P(k) at redshift z=5
# for k=1.04587e-05 to 1006.18 h/Mpc,
# number of wavenumbers equal to 625
#    1:k (h/Mpc)              2:P (Mpc/h)^3        
       1.045870268866e-05       2.002188355816e+00 
       2.373187310368e-05       4.482508826780e+00 
       3.705372380217e-05       6.943803434911e+00 
       5.046231721908e-05       9.402721908548e+00 
       6.399637571182e-05       1.187061549659e+01 
       7.769564809544e-05       1.435707257632e+01 
       9.160128847324e-05       1.687097979872e+01 
       1.057562526912e-04       1.942099282837e+01 
       1.202057177832e-04       2.201580309669e+01 
       1.349975298089e-04       2.466431989644e+01 
       1.501826854778e-04       2.737581398598e+01 
       1.658158528514e-04       3.016004290668e+01 
       1.819559361320e-04       3.302736923546e+01 
       1.986666889987e-04       3.598887701829e+01 
       2.160173799711e-04       3.905649006660e+01 
       2.340835117070e-04       4.224309289259e+01 
       2.529475937013e-04       4.556265640336e+01 
       2.726999642530e-04       4.903036564165e+01 
       2.934396523958e-04       5.266274987046e+01 
       3.152752632892e-04       5.647780927385e+01 
       3.383258608066e-04       6.049513528896e+01 
       3.627218082115e-04       6.473601422853e+01 
       3.886055114391e-04       6.922350617213e+01 
       4.161319894287e-04       7.398248178459e+01 
       4.454691725620e-04       7.903960100264e+01 
       4.767978048485e-04       8.442321058834e+01 
       5.103108008224e-04       9.016313260275e+01 
       5.462118888683e-04       9.629031768619e+01 
       5.847133659379e-04       1.028363327059e+02 
       6.260328036873e-04       1.098326597132e+02 
       6.703885934819e-04       1.173097937906e+02 
       7.179943068205e-04       1.252961446058e+02 
       7.690519824771e-04       1.338167734802e+02 
       8.237446254462e-04       1.428920360614e+02 
       8.822283938101e-04       1.525362168647e+02 
       9.446251199277e-04       1.627563037209e+02 
       1.011015913410e-03       1.735510205562e+02 
       1.081436579913e-03       1.849102672180e+02 
       1.155875438088e-03       1.968150441925e+02 
       1.234273840199e-03       2.092379150137e+02 
       1.316529352574e-03       2.221439472791e+02 
       1.402501208648e-03       2.354920515896e+02 
       1.492017387150e-03       2.492365700641e+02 
       1.584882541238e-03       2.633289309728e+02 
       1.680886019781e-03       2.777192515495e+02 
       1.779809350608e-03       2.923577560173e+02 
       1.881432747435e-03       3.071959271371e+02 
       1.985540405887e-03       3.221873994125e+02 
       2.091924531146e-03       3.372885567412e+02 
       2.200388170099e-03       3.524589241019e+02 
       2.310747000640e-03       3.676610561047e+02 
       2.422830266832e-03       3.828611678934e+02 
       2.536481052668e-03       3.980290059314e+02 
       2.651556071079e-03       4.131372491058e+02 
       2.767925118590e-03       4.281615435390e+02 
       2.885470316688e-03       4.430804151067e+02 
       3.004085232829e-03       4.578749233918e+02 
       3.123673949470e-03       4.725285735109e+02 
       3.244150129282e-03       4.870270291148e+02 
       3.365436108819e-03       5.013579117293e+02 
       3.487462040940e-03       5.155106057115e+02 
       3.610165097499e-03       5.294760482627e+02 
       3.733488737610e-03       5.432466463936e+02 
       3.857382042578e-03       5.568159296787e+02 
       3.981799115783e-03       5.701785358067e+02 
       4.106698544138e-03       5.833301522660e+02 
       4.232042916729e-03       5.962671416364e+02 
       4.357798395862e-03       6.089868748876e+02 
       4.483934335582e-03       6.214871356220e+02 
       4.610422942912e-03       6.337665860165e+02 
       4.737238977254e-03       6.458241784976e+02 
       4.864359483792e-03       6.576595052300e+02 
       4.991763557034e-03       6.692726266189e+02 
       5.119432131054e-03       6.806637423468e+02 
       5.247347793315e-03       6.918337036761e+02 
       5.375494619326e-03       7.027832803203e+02 
       5.503858025663e-03       7.135137127837e+02 
       5.632424639206e-03       7.240265811671e+02 
       5.761182180674e-03       7.343233143526e+02 
       5.890119360774e-03       7.444056880066e+02 
       6.019225787498e-03       7.542755833571e+02 
       6.148491883262e-03       7.639349200543e+02 
       6.277908810746e-03       7.733859165237e+02 
       6.407468406454e-03       7.826309061401e+02 
       6.537163121081e-03       7.916718080114e+02 
       6.666985965954e-03       8.005111714270e+02 
       6.796930464837e-03       8.091512249247e+02 
       6.926990610529e-03       8.175944277167e+02 
       7.057160825703e-03       8.258434338166e+02 
       7.187435927554e-03       8.339005611027e+02 
       7.317811095817e-03       8.417681730432e+02 
       7.448281843819e-03       8.494488022754e+02 
       7.578843992230e-03       8.569450186673e+02 
       7.709493645242e-03       8.642588997260e+02 
       7.840227168919e-03       8.713935033605e+02 
       7.971041171497e-03       8.783509968552e+02 
       8.101932485448e-03       8.851334648348e+02 
       8.232898151108e-03       8.917438572244e+02 
       8.363935401752e-03       8.981844782821e+02 
       8.495041649929e-03       9.044571171658e+02 
       8.626214474983e-03       9.105646672522e+02 
       8.757451611607e-03       9.165094483070e+02 
       8.888750939360e-03       9.222936710388e+02 
       9.020110473045e-03       9.279194533500e+02 
       9.151528353863e-03       9.333893769090e+02 
       9.283002841297e-03       9.387053560231e+02 
       9.414532305625e-03       9.438698099728e+02 
       9.546115221039e-03       9.488846823997e+02 
       9.677750159296e-03       9.537522403060e+02 
       9.809435783860e-03       9.584746899159e+02 
       9.941170844498e-03       9.630537939434e+02 
       1.007295417229e-02       9.674918330728e+02 
       1.020478467499e-02       9.717908564943e+02 
       1.033666133280e-02       9.759526662911e+02 
       1.046858319436e-02       9.799795920515e+02 
       1.060054937313e-02       9.838728713084e+02 
       1.073255904397e-02       9.876350458540e+02 
       1.086461144000e-02       9.912694886334e+02 
       1.099670584968e-02       9.947748564227e+02 
       1.112884161410e-02       9.981545393729e+02 
       1.126101812447e-02       1.001410010210e+03 
       1.139323481977e-02       1.004543642566e+03 
       1.152549118459e-02       1.007556619549e+03 
       1.165778674710e-02       1.010450487306e+03 
       1.179012107718e-02       1.013227907699e+03 
       1.192249378470e-02       1.015889426548e+03 
       1.205490451785e-02       1.018437179965e+03 
       1.218735296169e-02       1.020873178872e+03 
       1.231983883670e-02       1.023198521517e+03 
       1.245236189750e-02       1.025414872529e+03 
       1.258492193166e-02       1.027523617030e+03 
       1.271751875856e-02       1.029526944853e+03 
       1.285015222831e-02       1.031425659268e+03 
       1.298282222086e-02       1.033221030010e+03 
       1.311552864504e-02       1.034915514180e+03 
       1.324827143776e-02       1.036510078236e+03 
       1.338105056325e-02       1.038005866733e+03 
       1.351386601230e-02       1.039404924706e+03 
       1.364671780167e-02       1.040708389919e+03 
       1.377960597344e-02       1.041917270665e+03 
       1.391253059447e-02       1.043033199214e+03 
       1.404549175590e-02       1.044057760606e+03 
       1.417848957267e-02       1.044992482367e+03 
       1.431152418312e-02       1.045837952225e+03 
       1.444459574855e-02       1.046596173891e+03 
       1.457770445296e-02       1.047267883114e+03 
       1.471085050263e-02       1.047854764966e+03 
       1.484403412595e-02       1.048357534327e+03 
       1.497725557307e-02       1.048777872652e+03 
       1.511051511578e-02       1.049116892902e+03 
       1.524381304722e-02       1.049376201146e+03 
       1.537714968181e-02       1.049556511656e+03 
       1.551052535508e-02       1.049659186613e+03 
       1.564394042353e-02       1.049685577941e+03 
       1.577739526460e-02       1.049636520724e+03 
       1.591089027659e-02       1.049513514859e+03 
       1.604442587860e-02       1.049317650305e+03 
       1.617800251057e-02       1.049050051096e+03 
       1.631162063321e-02       1.048711599856e+03 
       1.644528072812e-02       1.048303702409e+03 
       1.657898329774e-02       1.047827502355e+03 
       1.671272886552e-02       1.047283916361e+03 
       1.684651797591e-02       1.046674374684e+03 
       1.698035119453e-02       1.045998845157e+03 
       1.711422910829e-02       1.045259288899e+03 
       1.724815232551e-02       1.044457616661e+03 
       1.738212147607e-02       1.043593968798e+03 
       1.751613721165e-02       1.042668470575e+03 
       1.765020020586e-02       1.041683248926e+03 
       1.778431115448e-02       1.040639094386e+03 
       1.791847077570e-02       1.039537273806e+03 
       1.805267981035e-02       1.038378126202e+03 
       1.818693902218e-02       1.037163163992e+03 
       1.832124919813e-02       1.035893132832e+03 
       1.845561114863e-02       1.034568989327e+03 
       1.859002570791e-02       1.033191326545e+03 
       1.872449373435e-02       1.031761881029e+03 
       1.885901611081e-02       1.030281284245e+03 
       1.899359374499e-02       1.028749394923e+03 
       1.912822756984e-02       1.027168866280e+03 
       1.926291854395e-02       1.025538480250e+03 
       1.939766765193e-02       1.023862180977e+03 
       1.953247590490e-02       1.022136750532e+03 
       1.966734434090e-02       1.020368176166e+03 
       1.980227402539e-02       1.018552312553e+03 
       1.993726605171e-02       1.016693081931e+03 
       2.007232154161e-02       1.014790343664e+03 
       2.020744164576e-02       1.012844092494e+03 
       2.034262754430e-02       1.010856313763e+03 
       2.047788044740e-02       1.008828023677e+03 
       2.061320159585e-02       1.006759280256e+03 
       2.074859226165e-02       1.004651062113e+03 
       2.088405374866e-02       1.002504041538e+03 
       2.101958739320e-02       1.000318884071e+03 
       2.115519456477e-02       9.980968079166e+02 
       2.129087666668e-02       9.958396961584e+02 
       2.142663513683e-02       9.935450837993e+02 
       2.156247144836e-02       9.912169154234e+02 
       2.169838711048e-02       9.888541052385e+02 
       2.183438366922e-02       9.864577678116e+02 
       2.197046270824e-02       9.840295239896e+02 
       2.210662584963e-02       9.815675332609e+02 
       2.224287475484e-02       9.790759529146e+02 
       2.237921112549e-02       9.765529730786e+02 
       2.251563670433e-02       9.740003124325e+02 
       2.265215327615e-02       9.714194875082e+02 
       2.278876266879e-02       9.688094936240e+02 
       2.292546675407e-02       9.661713009706e+02 
       2.306226744892e-02       9.635065775084e+02 
       2.319916671634e-02       9.608145623005e+02 
       2.333616656658e-02       9.580984426595e+02 
       2.347326905821e-02       9.553545343670e+02 
       2.361047629933e-02       9.525879213039e+02 
       2.374779044875e-02       9.497965538068e+02 
       2.388521371723e-02       9.469838589554e+02 
       2.402274836877e-02       9.441476814366e+02 
       2.416039672191e-02       9.412892668777e+02 
       2.429816115111e-02       9.384084695845e+02 
       2.443604408816e-02       9.355072334606e+02 
       2.457404802358e-02       9.325878356584e+02 
       2.471217550818e-02       9.296471160456e+02 
       2.485042915456e-02       9.266864649737e+02 
       2.498881163869e-02       9.237100589181e+02 
       2.512732570161e-02       9.207157154799e+02 
       2.526597415106e-02       9.177013728011e+02 
       2.540475986326e-02       9.146726964803e+02 
       2.554368578474e-02       9.116262466550e+02 
       2.568275493415e-02       9.085647368420e+02 
       2.582197040423e-02       9.054871980911e+02 
       2.596133536380e-02       9.023959597279e+02 
       2.610085305981e-02       8.992910666825e+02 
       2.624052681944e-02       8.961742675307e+02 
       2.638036005234e-02       8.930416852797e+02 
       2.652035625289e-02       8.898975534606e+02 
       2.666051900254e-02       8.867403770467e+02 
       2.680085197223e-02       8.835733313269e+02 
       2.694135892492e-02       8.803931859131e+02 
       2.708204371819e-02       8.772042744119e+02 
       2.722291030693e-02       8.740049182736e+02 
       2.736396274610e-02       8.707947802442e+02 
       2.750520519366e-02       8.675744525736e+02 
       2.764664191349e-02       8.643483307706e+02 
       2.778827727855e-02       8.611105799652e+02 
       2.793011577402e-02       8.578689895375e+02 
       2.807216200067e-02       8.546163172425e+02 
       2.821442067826e-02       8.513562554261e+02 
       2.835689664913e-02       8.480909335069e+02 
       2.849959488188e-02       8.448188136004e+02 
       2.864252047521e-02       8.415421368606e+02 
       2.878567866189e-02       8.382556163379e+02 
       2.892907481292e-02       8.349673137817e+02 
       2.907271444176e-02       8.316717220806e+02 
       2.921660320883e-02       8.283745854821e+02 
       2.936074692610e-02       8.250720429831e+02 
       2.950515156188e-02       8.217656982618e+02 
       2.964982324585e-02       8.184551484169e+02 
       2.979476827423e-02       8.151429588971e+02 
       2.993999311512e-02       8.118258119537e+02 
       3.008550441418e-02       8.085080289121e+02 
       3.023130900043e-02       8.051866699136e+02 
       3.037741389232e-02       8.018644061467e+02 
       3.052382630406e-02       7.985386842366e+02 
       3.067055365219e-02       7.952132366661e+02 
       3.081760356246e-02       7.918877973924e+02 
       3.096498387696e-02       7.885572594770e+02 
       3.111270266157e-02       7.852288772942e+02 
       3.126076821374e-02       7.818997410386e+02 
       3.140918907061e-02       7.785724611963e+02 
       3.155797401743e-02       7.752442868022e+02 
       3.170713209641e-02       7.719168920989e+02 
       3.185667261596e-02       7.685882288647e+02 
       3.200660516032e-02       7.652639664472e+02 
       3.215693959961e-02       7.619382229186e+02 
       3.230768610036e-02       7.586135505050e+02 
       3.245885513658e-02       7.552928337144e+02 
       3.261045750122e-02       7.519720523500e+02 
       3.276250431825e-02       7.486547197569e+02 
       3.291500705534e-02       7.453369729678e+02 
       3.306797753706e-02       7.420251374666e+02 
       3.322142795876e-02       7.387132457958e+02 
       3.337537090114e-02       7.354039605043e+02 
       3.352981934552e-02       7.320981216457e+02 
       3.368478668986e-02       7.287962562708e+02 
       3.384028676558e-02       7.254985385410e+02 
       3.399633385529e-02       7.222022492020e+02 
       3.415294271131e-02       7.189109864092e+02 
       3.431012857529e-02       7.156197808564e+02 
       3.446790719873e-02       7.123366293764e+02 
       3.462629486465e-02       7.090561086493e+02 
       3.478530841041e-02       7.057800557869e+02 
       3.494496525174e-02       7.025060763210e+02 
       3.510528340807e-02       6.992380420753e+02 
       3.526628152931e-02       6.959738181236e+02 
       3.542797892406e-02       6.927151020839e+02 
       3.559039558943e-02       6.894596949796e+02 
       3.575355224254e-02       6.862090670259e+02 
       3.591747035388e-02       6.829633438974e+02 
       3.608217218258e-02       6.797208963674e+02 
       3.624768081372e-02       6.764864274417e+02 
       3.641402019791e-02       6.732537098060e+02 
       3.658121519328e-02       6.700260759444e+02 
       3.674929160994e-02       6.668067723800e+02 
       3.691827625726e-02       6.635886650600e+02 
       3.708819699408e-02       6.603777002250e+02 
       3.725908278209e-02       6.571701620674e+02 
       3.743096374260e-02       6.539682983718e+02 
       3.760387121707e-02       6.507705213147e+02 
       3.777783783152e-02       6.475805302012e+02 
       3.795289756526e-02       6.443930800901e+02 
       3.812908582426e-02       6.412100505941e+02 
       3.830643951954e-02       6.380322625344e+02 
       3.848499715090e-02       6.348614906045e+02 
       3.866479889662e-02       6.316924887104e+02 
       3.884588670944e-02       6.285314560400e+02 
       3.902830441954e-02       6.253740889606e+02 
       3.921209784497e-02       6.222186788026e+02 
       3.939731491028e-02       6.190694723412e+02 
       3.958400577404e-02       6.159245519749e+02 
       3.977222296617e-02       6.127840579658e+02 
       3.996202153575e-02       6.096492406417e+02 
       4.015345921057e-02       6.065151477674e+02 
       4.034659656927e-02       6.033890423726e+02 
       4.054149722753e-02       6.002624153430e+02 
       4.073822803946e-02       5.971408581727e+02 
       4.093685931587e-02       5.940247876700e+02 
       4.113746506103e-02       5.909112753876e+02 
       4.134012322983e-02       5.877998670261e+02 
       4.154491600750e-02       5.846910220293e+02 
       4.175193011424e-02       5.815885110180e+02 
       4.196125713745e-02       5.784843960049e+02 
       4.217299389463e-02       5.753821333420e+02 
       4.238724283028e-02       5.722811380611e+02 
       4.260411245072e-02       5.691824704061e+02 
       4.282371780122e-02       5.660871567834e+02 
       4.304618099031e-02       5.629903832356e+02 
       4.327163176708e-02       5.598949593231e+02 
       4.350020815775e-02       5.567998934985e+02 
       4.373205716898e-02       5.537045759328e+02 
       4.396733556642e-02       5.506076708540e+02 
       4.420621073802e-02       5.475094904248e+02 
       4.444886165352e-02       5.444117241500e+02 
       4.469547993279e-02       5.413104719869e+02 
       4.494627103816e-02       5.382066379513e+02 
       4.520145560801e-02       5.350992017447e+02 
       4.546127095178e-02       5.319876645370e+02 
       4.572597273011e-02       5.288725489447e+02 
       4.599583684769e-02       5.257508879563e+02 
       4.627116159134e-02       5.226230030239e+02 
       4.655227005160e-02       5.194886503053e+02 
       4.683951287327e-02       5.163460759648e+02 
       4.713327138864e-02       5.131938071362e+02 
       4.743396119761e-02       5.100327338170e+02 
       4.774203627142e-02       5.068596038302e+02 
       4.805799367218e-02       5.036735315913e+02 
       4.838237899930e-02       5.004732494692e+02 
       4.871579269720e-02       4.972586166762e+02 
       4.905889738787e-02       4.940277588975e+02 
       4.941242642776e-02       4.907750903466e+02 
       4.977719393363e-02       4.875027086507e+02 
       5.015410657858e-02       4.842072265191e+02 
       5.054417753067e-02       4.808850986883e+02 
       5.094854299694e-02       4.775341194343e+02 
       5.136848194969e-02       4.741514786459e+02 
       5.180543975749e-02       4.707337482680e+02 
       5.226105662883e-02       4.672753409616e+02 
       5.273720201245e-02       4.637722802572e+02 
       5.323601639930e-02       4.602191999915e+02 
       5.375996235226e-02       4.566082780952e+02 
       5.431188706854e-02       4.529337665309e+02 
       5.489509937185e-02       4.491856973845e+02 
       5.551346474179e-02       4.453527003457e+02 
       5.617152279776e-02       4.414211902551e+02 
       5.687463248261e-02       4.373738476354e+02 
       5.762915082883e-02       4.331892706256e+02 
       5.844265116553e-02       4.288433816884e+02 
       5.932418495502e-02       4.242976073999e+02 
       6.028458618874e-02       4.195111088142e+02 
       6.133680478464e-02       4.144222297620e+02 
       6.249622935711e-02       4.089524751762e+02 
       6.378091022415e-02       4.029960874390e+02 
       6.521150877653e-02       3.964152574233e+02 
