# Matter power spectrum P(k) at redshift z=3.5
# for k=1.04587e-05 to 1006.18 h/Mpc,
# number of wavenumbers equal to 625
#    1:k (h/Mpc)              2:P (Mpc/h)^3        
       1.045870268866e-05       3.547759326775e+00 
       2.373187310368e-05       7.942735103322e+00 
       3.705372380217e-05       1.230398567717e+01 
       5.046231721908e-05       1.666100651646e+01 
       6.399637571182e-05       2.103390360215e+01 
       7.769564809544e-05       2.543965890472e+01 
       9.160128847324e-05       2.989401005314e+01 
       1.057562526912e-04       3.441228420166e+01 
       1.202057177832e-04       3.900987052819e+01 
       1.349975298089e-04       4.370254246197e+01 
       1.501826854778e-04       4.850671165425e+01 
       1.658158528514e-04       5.343964970109e+01 
       1.819559361320e-04       5.851969702294e+01 
       1.986666889987e-04       6.376646842429e+01 
       2.160173799711e-04       6.920106169130e+01 
       2.340835117070e-04       7.484627125123e+01 
       2.529475937013e-04       8.072680913227e+01 
       2.726999642530e-04       8.686953012123e+01 
       2.934396523958e-04       9.330365998918e+01 
       3.152752632892e-04       1.000610182159e+02 
       3.383258608066e-04       1.071762280251e+02 
       3.627218082115e-04       1.146868973065e+02 
       3.886055114391e-04       1.226337540434e+02 
       4.161319894287e-04       1.310607079398e+02 
       4.454691725620e-04       1.400148077732e+02 
       4.767978048485e-04       1.495460544451e+02 
       5.103108008224e-04       1.597070218244e+02 
       5.462118888683e-04       1.705522372843e+02 
       5.847133659379e-04       1.821372712502e+02 
       6.260328036873e-04       1.945174939293e+02 
       6.703885934819e-04       2.077464804370e+02 
       7.179943068205e-04       2.218740729449e+02 
       7.690519824771e-04       2.369441596954e+02 
       8.237446254462e-04       2.529922951148e+02 
       8.822283938101e-04       2.700433156470e+02 
       9.446251199277e-04       2.881092108148e+02 
       1.011015913410e-03       3.071874581943e+02 
       1.081436579913e-03       3.272600774192e+02 
       1.155875438088e-03       3.482935331418e+02 
       1.234273840199e-03       3.702395730102e+02 
       1.316529352574e-03       3.930368852684e+02 
       1.402501208648e-03       4.166134316662e+02 
       1.492017387150e-03       4.408891902243e+02 
       1.584882541238e-03       4.657789986259e+02 
       1.680886019781e-03       4.911952951079e+02 
       1.779809350608e-03       5.170505466810e+02 
       1.881432747435e-03       5.432592293612e+02 
       1.985540405887e-03       5.697393924242e+02 
       2.091924531146e-03       5.964137384881e+02 
       2.200388170099e-03       6.232103746330e+02 
       2.310747000640e-03       6.500626954493e+02 
       2.422830266832e-03       6.769105819004e+02 
       2.536481052668e-03       7.037002447194e+02 
       2.651556071079e-03       7.303832096752e+02 
       2.767925118590e-03       7.569163614717e+02 
       2.885470316688e-03       7.832618362103e+02 
       3.004085232829e-03       8.093862948546e+02 
       3.123673949470e-03       8.352607513053e+02 
       3.244150129282e-03       8.608600134123e+02 
       3.365436108819e-03       8.861622938449e+02 
       3.487462040940e-03       9.111488549754e+02 
       3.610165097499e-03       9.358036462176e+02 
       3.733488737610e-03       9.601131798391e+02 
       3.857382042578e-03       9.840659479046e+02 
       3.981799115783e-03       1.007652424967e+03 
       4.106698544138e-03       1.030864978352e+03 
       4.232042916729e-03       1.053697217151e+03 
       4.357798395862e-03       1.076144569313e+03 
       4.483934335582e-03       1.098203218117e+03 
       4.610422942912e-03       1.119870902904e+03 
       4.737238977254e-03       1.141145866543e+03 
       4.864359483792e-03       1.162027459316e+03 
       4.991763557034e-03       1.182515839841e+03 
       5.119432131054e-03       1.202611388068e+03 
       5.247347793315e-03       1.222315630283e+03 
       5.375494619326e-03       1.241629945370e+03 
       5.503858025663e-03       1.260556551175e+03 
       5.632424639206e-03       1.279098276191e+03 
       5.761182180674e-03       1.297257691856e+03 
       5.890119360774e-03       1.315037985883e+03 
       6.019225787498e-03       1.332442533952e+03 
       6.148491883262e-03       1.349474782090e+03 
       6.277908810746e-03       1.366138689758e+03 
       6.407468406454e-03       1.382438374688e+03 
       6.537163121081e-03       1.398377252702e+03 
       6.666985965954e-03       1.413959807923e+03 
       6.796930464837e-03       1.429190081189e+03 
       6.926990610529e-03       1.444072345477e+03 
       7.057160825703e-03       1.458611350651e+03 
       7.187435927554e-03       1.472811214238e+03 
       7.317811095817e-03       1.486676147244e+03 
       7.448281843819e-03       1.500210628448e+03 
       7.578843992230e-03       1.513419244119e+03 
       7.709493645242e-03       1.526305685274e+03 
       7.840227168919e-03       1.538875370403e+03 
       7.971041171497e-03       1.551132144596e+03 
       8.101932485448e-03       1.563079694926e+03 
       8.232898151108e-03       1.574723255982e+03 
       8.363935401752e-03       1.586066890605e+03 
       8.495041649929e-03       1.597113786974e+03 
       8.626214474983e-03       1.607869077402e+03 
       8.757451611607e-03       1.618336869836e+03 
       8.888750939360e-03       1.628521088579e+03 
       9.020110473045e-03       1.638425482894e+03 
       9.151528353863e-03       1.648054531507e+03 
       9.283002841297e-03       1.657413724787e+03 
       9.414532305625e-03       1.666504608101e+03 
       9.546115221039e-03       1.675330677235e+03 
       9.677750159296e-03       1.683896588382e+03 
       9.809435783860e-03       1.692206286840e+03 
       9.941170844498e-03       1.700262890333e+03 
       1.007295417229e-02       1.708070427628e+03 
       1.020478467499e-02       1.715632534246e+03 
       1.033666133280e-02       1.722952398881e+03 
       1.046858319436e-02       1.730034139334e+03 
       1.060054937313e-02       1.736879939600e+03 
       1.073255904397e-02       1.743494197256e+03 
       1.086461144000e-02       1.749880025525e+03 
       1.099670584968e-02       1.756040525885e+03 
       1.112884161410e-02       1.761979222758e+03 
       1.126101812447e-02       1.767698724606e+03 
       1.139323481977e-02       1.773203230336e+03 
       1.152549118459e-02       1.778494835640e+03 
       1.165778674710e-02       1.783576276542e+03 
       1.179012107718e-02       1.788452251786e+03 
       1.192249378470e-02       1.793123725186e+03 
       1.205490451785e-02       1.797594466058e+03 
       1.218735296169e-02       1.801868020227e+03 
       1.231983883670e-02       1.805946323248e+03 
       1.245236189750e-02       1.809832310065e+03 
       1.258492193166e-02       1.813528424447e+03 
       1.271751875856e-02       1.817038531104e+03 
       1.285015222831e-02       1.820364050547e+03 
       1.298282222086e-02       1.823507229199e+03 
       1.311552864504e-02       1.826472411725e+03 
       1.324827143776e-02       1.829261309207e+03 
       1.338105056325e-02       1.831875955882e+03 
       1.351386601230e-02       1.834319971421e+03 
       1.364671780167e-02       1.836595372836e+03 
       1.377960597344e-02       1.838703975590e+03 
       1.391253059447e-02       1.840648739087e+03 
       1.404549175590e-02       1.842432280763e+03 
       1.417848957267e-02       1.844057278434e+03 
       1.431152418312e-02       1.845524782103e+03 
       1.444459574855e-02       1.846838420492e+03 
       1.457770445296e-02       1.847999484339e+03 
       1.471085050263e-02       1.849010950517e+03 
       1.484403412595e-02       1.849874077268e+03 
       1.497725557307e-02       1.850591838186e+03 
       1.511051511578e-02       1.851166200920e+03 
       1.524381304722e-02       1.851600004365e+03 
       1.537714968181e-02       1.851894510525e+03 
       1.551052535508e-02       1.852052137595e+03 
       1.564394042353e-02       1.852075266542e+03 
       1.577739526460e-02       1.851965381284e+03 
       1.591089027659e-02       1.851725131008e+03 
       1.604442587860e-02       1.851356442077e+03 
       1.617800251057e-02       1.850861305897e+03 
       1.631162063321e-02       1.850241285473e+03 
       1.644528072812e-02       1.849498859482e+03 
       1.657898329774e-02       1.848636052723e+03 
       1.671272886552e-02       1.847654482205e+03 
       1.684651797591e-02       1.846556682909e+03 
       1.698035119453e-02       1.845342594016e+03 
       1.711422910829e-02       1.844015679320e+03 
       1.724815232551e-02       1.842579317951e+03 
       1.738212147607e-02       1.841033750312e+03 
       1.751613721165e-02       1.839379203352e+03 
       1.765020020586e-02       1.837619433321e+03 
       1.778431115448e-02       1.835755836747e+03 
       1.791847077570e-02       1.833790643382e+03 
       1.805267981035e-02       1.831724459801e+03 
       1.818693902218e-02       1.829559951196e+03 
       1.832124919813e-02       1.827298430907e+03 
       1.845561114863e-02       1.824941592371e+03 
       1.859002570791e-02       1.822490476479e+03 
       1.872449373435e-02       1.819948153074e+03 
       1.885901611081e-02       1.817315730111e+03 
       1.899359374499e-02       1.814592960628e+03 
       1.912822756984e-02       1.811784533250e+03 
       1.926291854395e-02       1.808888286152e+03 
       1.939766765193e-02       1.805911185613e+03 
       1.953247590490e-02       1.802847552658e+03 
       1.966734434090e-02       1.799707950643e+03 
       1.980227402539e-02       1.796485068957e+03 
       1.993726605171e-02       1.793185824410e+03 
       2.007232154161e-02       1.789809972554e+03 
       2.020744164576e-02       1.786357501593e+03 
       2.034262754430e-02       1.782831919755e+03 
       2.047788044740e-02       1.779235016816e+03 
       2.061320159585e-02       1.775566903605e+03 
       2.074859226165e-02       1.771829303887e+03 
       2.088405374866e-02       1.768023401772e+03 
       2.101958739320e-02       1.764150382764e+03 
       2.115519456477e-02       1.760212394007e+03 
       2.129087666668e-02       1.756212754419e+03 
       2.142663513683e-02       1.752147128300e+03 
       2.156247144836e-02       1.748022475955e+03 
       2.169838711048e-02       1.743836877268e+03 
       2.183438366922e-02       1.739592311363e+03 
       2.197046270824e-02       1.735291633516e+03 
       2.210662584963e-02       1.730931609136e+03 
       2.224287475484e-02       1.726519566970e+03 
       2.237921112549e-02       1.722052322337e+03 
       2.251563670433e-02       1.717532912042e+03 
       2.265215327615e-02       1.712964012061e+03 
       2.278876266879e-02       1.708343853002e+03 
       2.292546675407e-02       1.703674155643e+03 
       2.306226744892e-02       1.698957859663e+03 
       2.319916671634e-02       1.694193629565e+03 
       2.333616656658e-02       1.689387091290e+03 
       2.347326905821e-02       1.684531748055e+03 
       2.361047629933e-02       1.679636569062e+03 
       2.374779044875e-02       1.674697945465e+03 
       2.388521371723e-02       1.669721922646e+03 
       2.402274836877e-02       1.664704699370e+03 
       2.416039672191e-02       1.659648477819e+03 
       2.429816115111e-02       1.654553005295e+03 
       2.443604408816e-02       1.649421705797e+03 
       2.457404802358e-02       1.644258596370e+03 
       2.471217550818e-02       1.639058112818e+03 
       2.485042915456e-02       1.633822704527e+03 
       2.498881163869e-02       1.628559737198e+03 
       2.512732570161e-02       1.623265351371e+03 
       2.526597415106e-02       1.617935927652e+03 
       2.540475986326e-02       1.612581448291e+03 
       2.554368578474e-02       1.607195849952e+03 
       2.568275493415e-02       1.601783915710e+03 
       2.582197040423e-02       1.596343925689e+03 
       2.596133536380e-02       1.590880016433e+03 
       2.610085305981e-02       1.585392228329e+03 
       2.624052681944e-02       1.579883647292e+03 
       2.638036005234e-02       1.574347465261e+03 
       2.652035625289e-02       1.568791111670e+03 
       2.666051900254e-02       1.563211966536e+03 
       2.680085197223e-02       1.557615617718e+03 
       2.694135892492e-02       1.551996367188e+03 
       2.708204371819e-02       1.546361849072e+03 
       2.722291030693e-02       1.540709110160e+03 
       2.736396274610e-02       1.535037550460e+03 
       2.750520519366e-02       1.529348203475e+03 
       2.764664191349e-02       1.523648803302e+03 
       2.778827727855e-02       1.517929093181e+03 
       2.793011577402e-02       1.512202776836e+03 
       2.807216200067e-02       1.506457094378e+03 
       2.821442067826e-02       1.500698548905e+03 
       2.835689664913e-02       1.494930886083e+03 
       2.849959488188e-02       1.489151390349e+03 
       2.864252047521e-02       1.483364014641e+03 
       2.878567866189e-02       1.477559432046e+03 
       2.892907481292e-02       1.471751860722e+03 
       2.907271444176e-02       1.465931552466e+03 
       2.921660320883e-02       1.460108692448e+03 
       2.936074692610e-02       1.454276419066e+03 
       2.950515156188e-02       1.448437570958e+03 
       2.964982324585e-02       1.442591436686e+03 
       2.979476827423e-02       1.436742511794e+03 
       2.993999311512e-02       1.430885002253e+03 
       3.008550441418e-02       1.425026470745e+03 
       3.023130900043e-02       1.419161758570e+03 
       3.037741389232e-02       1.413295561961e+03 
       3.052382630406e-02       1.407423375705e+03 
       3.067055365219e-02       1.401551774506e+03 
       3.081760356246e-02       1.395680296812e+03 
       3.096498387696e-02       1.389799939329e+03 
       3.111270266157e-02       1.383923476012e+03 
       3.126076821374e-02       1.378045781345e+03 
       3.140918907061e-02       1.372171445783e+03 
       3.155797401743e-02       1.366295637096e+03 
       3.170713209641e-02       1.360421293658e+03 
       3.185667261596e-02       1.354544803068e+03 
       3.200660516032e-02       1.348676150058e+03 
       3.215693959961e-02       1.342804977291e+03 
       3.230768610036e-02       1.336935791771e+03 
       3.245885513658e-02       1.331073655755e+03 
       3.261045750122e-02       1.325211489212e+03 
       3.276250431825e-02       1.319355481977e+03 
       3.291500705534e-02       1.313498824469e+03 
       3.306797753706e-02       1.307652662782e+03 
       3.322142795876e-02       1.301806482969e+03 
       3.337537090114e-02       1.295964989619e+03 
       3.352981934552e-02       1.290129620366e+03 
       3.368478668986e-02       1.284301336591e+03 
       3.384028676558e-02       1.278480438684e+03 
       3.399633385529e-02       1.272662138872e+03 
       3.415294271131e-02       1.266852758055e+03 
       3.431012857529e-02       1.261043535884e+03 
       3.446790719873e-02       1.255248587626e+03 
       3.462629486465e-02       1.249458344740e+03 
       3.478530841041e-02       1.243676044239e+03 
       3.494496525174e-02       1.237897474107e+03 
       3.510528340807e-02       1.232129424226e+03 
       3.526628152931e-02       1.226368160950e+03 
       3.542797892406e-02       1.220616669659e+03 
       3.559039558943e-02       1.214871072358e+03 
       3.575355224254e-02       1.209133958766e+03 
       3.591747035388e-02       1.203405546822e+03 
       3.608217218258e-02       1.197682960213e+03 
       3.624768081372e-02       1.191974505507e+03 
       3.641402019791e-02       1.186269199297e+03 
       3.658121519328e-02       1.180572904461e+03 
       3.674929160994e-02       1.174891353982e+03 
       3.691827625726e-02       1.169211972108e+03 
       3.708819699408e-02       1.163545236879e+03 
       3.725908278209e-02       1.157884600344e+03 
       3.743096374260e-02       1.152234022312e+03 
       3.760387121707e-02       1.146590711721e+03 
       3.777783783152e-02       1.140961179338e+03 
       3.795289756526e-02       1.135336177843e+03 
       3.812908582426e-02       1.129719044212e+03 
       3.830643951954e-02       1.124111208988e+03 
       3.848499715090e-02       1.118515791084e+03 
       3.866479889662e-02       1.112923564466e+03 
       3.884588670944e-02       1.107345449465e+03 
       3.902830441954e-02       1.101773868085e+03 
       3.921209784497e-02       1.096205803882e+03 
       3.939731491028e-02       1.090648750311e+03 
       3.958400577404e-02       1.085099309228e+03 
       3.977222296617e-02       1.079557749772e+03 
       3.996202153575e-02       1.074026279213e+03 
       4.015345921057e-02       1.068496157126e+03 
       4.034659656927e-02       1.062980190987e+03 
       4.054149722753e-02       1.057463388922e+03 
       4.073822803946e-02       1.051955604437e+03 
       4.093685931587e-02       1.046457577963e+03 
       4.113746506103e-02       1.040964142229e+03 
       4.134012322983e-02       1.035474508266e+03 
       4.154491600750e-02       1.029989479170e+03 
       4.175193011424e-02       1.024515691877e+03 
       4.196125713745e-02       1.019039179068e+03 
       4.217299389463e-02       1.013566013675e+03 
       4.238724283028e-02       1.008095183310e+03 
       4.260411245072e-02       1.002628544989e+03 
       4.282371780122e-02       9.971678970026e+02 
       4.304618099031e-02       9.917047672823e+02 
       4.327163176708e-02       9.862440965605e+02 
       4.350020815775e-02       9.807841440725e+02 
       4.373205716898e-02       9.753238344385e+02 
       4.396733556642e-02       9.698607920728e+02 
       4.420621073802e-02       9.643955795286e+02 
       4.444886165352e-02       9.589311656380e+02 
       4.469547993279e-02       9.534606614128e+02 
       4.494627103816e-02       9.479856697147e+02 
       4.520145560801e-02       9.425043774423e+02 
       4.546127095178e-02       9.370159042446e+02 
       4.572597273011e-02       9.315211553123e+02 
       4.599583684769e-02       9.260148988768e+02 
       4.627116159134e-02       9.204976874322e+02 
       4.655227005160e-02       9.149690871959e+02 
       4.683951287327e-02       9.094260036689e+02 
       4.713327138864e-02       9.038658073311e+02 
       4.743396119761e-02       8.982900837463e+02 
       4.774203627142e-02       8.926930728136e+02 
       4.805799367218e-02       8.870732274436e+02 
       4.838237899930e-02       8.814282661487e+02 
       4.871579269720e-02       8.757579610935e+02 
       4.905889738787e-02       8.700589956227e+02 
       4.941242642776e-02       8.643215089124e+02 
       4.977719393363e-02       8.585492096481e+02 
       5.015410657858e-02       8.527361039977e+02 
       5.054417753067e-02       8.468759421705e+02 
       5.094854299694e-02       8.409648266306e+02 
       5.136848194969e-02       8.349978377129e+02 
       5.180543975749e-02       8.289688886955e+02 
       5.226105662883e-02       8.228681503237e+02 
       5.273720201245e-02       8.166886412276e+02 
       5.323601639930e-02       8.104208567600e+02 
       5.375996235226e-02       8.040510593663e+02 
       5.431188706854e-02       7.975691110373e+02 
       5.489509937185e-02       7.909574376934e+02 
       5.551346474179e-02       7.841960081680e+02 
       5.617152279776e-02       7.772608618466e+02 
       5.687463248261e-02       7.701214813213e+02 
       5.762915082883e-02       7.627401294060e+02 
       5.844265116553e-02       7.550743274270e+02 
       5.932418495502e-02       7.470561227440e+02 
       6.028458618874e-02       7.386134928756e+02 
       6.133680478464e-02       7.296378014500e+02 
       6.249622935711e-02       7.199907567988e+02 
       6.378091022415e-02       7.094861721361e+02 
       6.521150877653e-02       6.978814811115e+02 
