# Matter power spectrum P(k) at redshift z=3.5
# for k=1.04587e-05 to 1006.18 h/Mpc,
# number of wavenumbers equal to 625
#    1:k (h/Mpc)              2:P (Mpc/h)^3        
       1.045870268866e-05       3.547835401245e+00 
       2.373187310368e-05       7.942904866106e+00 
       3.705372380217e-05       1.230424712664e+01 
       5.046231721908e-05       1.666135755080e+01 
       6.399637571182e-05       2.103434177352e+01 
       7.769564809544e-05       2.544018128340e+01 
       9.160128847324e-05       2.989461310665e+01 
       1.057562526912e-04       3.441296366273e+01 
       1.202057177832e-04       3.901062123973e+01 
       1.349975298089e-04       4.370335818860e+01 
       1.501826854778e-04       4.850758485177e+01 
       1.658158528514e-04       5.344057123418e+01 
       1.819559361320e-04       5.852065581472e+01 
       1.986666889987e-04       6.376745102523e+01 
       2.160173799711e-04       6.920205174325e+01 
       2.340835117070e-04       7.484724882683e+01 
       2.529475937013e-04       8.072774990682e+01 
       2.726999642530e-04       8.687040435137e+01 
       2.934396523958e-04       9.330443122899e+01 
       3.152752632892e-04       1.000616417249e+02 
       3.383258608066e-04       1.071766487689e+02 
       3.627218082115e-04       1.146870474676e+02 
       3.886055114391e-04       1.226335499021e+02 
       4.161319894287e-04       1.310600459871e+02 
       4.454691725620e-04       1.400135598695e+02 
       4.767978048485e-04       1.495440618030e+02 
       5.103108008224e-04       1.597040875808e+02 
       5.462118888683e-04       1.705481173730e+02 
       5.847133659379e-04       1.821316632884e+02 
       6.260328036873e-04       1.945100238221e+02 
       6.703885934819e-04       2.077366864416e+02 
       7.179943068205e-04       2.218613870083e+02 
       7.690519824771e-04       2.369278860208e+02 
       8.237446254462e-04       2.529715860811e+02 
       8.822283938101e-04       2.700171454961e+02 
       9.446251199277e-04       2.880763477578e+02 
       1.011015913410e-03       3.071464359320e+02 
       1.081436579913e-03       3.272091672972e+02 
       1.155875438088e-03       3.482307183639e+02 
       1.234273840199e-03       3.701625263162e+02 
       1.316529352574e-03       3.929429514533e+02 
       1.402501208648e-03       4.164996159871e+02 
       1.492017387150e-03       4.407521534570e+02 
       1.584882541238e-03       4.656150590564e+02 
       1.680886019781e-03       4.910004374510e+02 
       1.779809350608e-03       5.168204374140e+02 
       1.881432747435e-03       5.429892378845e+02 
       1.985540405887e-03       5.694246170776e+02 
       2.091924531146e-03       5.960490365647e+02 
       2.200388170099e-03       6.227903953121e+02 
       2.310747000640e-03       6.495819159169e+02 
       2.422830266832e-03       6.763633424391e+02 
       2.536481052668e-03       7.030807843268e+02 
       2.651556071079e-03       7.296857034256e+02 
       2.767925118590e-03       7.561349560979e+02 
       2.885470316688e-03       7.823906842958e+02 
       3.004085232829e-03       8.084195877027e+02 
       3.123673949470e-03       8.341927493973e+02 
       3.244150129282e-03       8.596850748499e+02 
       3.365436108819e-03       8.848749002114e+02 
       3.487462040940e-03       9.097436344407e+02 
       3.610165097499e-03       9.342753938046e+02 
       3.733488737610e-03       9.584568743396e+02 
       3.857382042578e-03       9.822767665644e+02 
       3.981799115783e-03       1.005725754664e+03 
       4.106698544138e-03       1.028796423611e+03 
       4.232042916729e-03       1.051482606657e+03 
       4.357798395862e-03       1.073779957857e+03 
       4.483934335582e-03       1.095684888743e+03 
       4.610422942912e-03       1.117195364381e+03 
       4.737238977254e-03       1.138309851515e+03 
       4.864359483792e-03       1.159027918967e+03 
       4.991763557034e-03       1.179349937651e+03 
       5.119432131054e-03       1.199276494084e+03 
       5.247347793315e-03       1.218809311428e+03 
       5.375494619326e-03       1.237949958840e+03 
       5.503858025663e-03       1.256700834213e+03 
       5.632424639206e-03       1.275064935961e+03 
       5.761182180674e-03       1.293044997937e+03 
       5.890119360774e-03       1.310644359728e+03 
       6.019225787498e-03       1.327866539896e+03 
       6.148491883262e-03       1.344715118927e+03 
       6.277908810746e-03       1.361194181252e+03 
       6.407468406454e-03       1.377308053002e+03 
       6.537163121081e-03       1.393060413536e+03 
       6.666985965954e-03       1.408455553543e+03 
       6.796930464837e-03       1.423497701873e+03 
       6.926990610529e-03       1.438191298821e+03 
       7.057160825703e-03       1.452541247726e+03 
       7.187435927554e-03       1.466551811009e+03 
       7.317811095817e-03       1.480227334119e+03 
       7.448281843819e-03       1.493572419695e+03 
       7.578843992230e-03       1.506591768821e+03 
       7.709493645242e-03       1.519289183343e+03 
       7.840227168919e-03       1.531670177194e+03 
       7.971041171497e-03       1.543738691421e+03 
       8.101932485448e-03       1.555498503379e+03 
       8.232898151108e-03       1.566954924607e+03 
       8.363935401752e-03       1.578112094732e+03 
       8.495041649929e-03       1.588973277922e+03 
       8.626214474983e-03       1.599543667594e+03 
       8.757451611607e-03       1.609827433035e+03 
       8.888750939360e-03       1.619828556217e+03 
       9.020110473045e-03       1.629550840445e+03 
       9.151528353863e-03       1.638998809944e+03 
       9.283002841297e-03       1.648177998715e+03 
       9.414532305625e-03       1.657089994824e+03 
       9.546115221039e-03       1.665738333635e+03 
       9.677750159296e-03       1.674127702391e+03 
       9.809435783860e-03       1.682262074783e+03 
       9.941170844498e-03       1.690144597859e+03 
       1.007295417229e-02       1.697779320682e+03 
       1.020478467499e-02       1.705169897691e+03 
       1.033666133280e-02       1.712319535821e+03 
       1.046858319436e-02       1.719232361862e+03 
       1.060054937313e-02       1.725910577708e+03 
       1.073255904397e-02       1.732358581921e+03 
       1.086461144000e-02       1.738579493872e+03 
       1.099670584968e-02       1.744576418681e+03 
       1.112884161410e-02       1.750352879294e+03 
       1.126101812447e-02       1.755911486602e+03 
       1.139323481977e-02       1.761256429355e+03 
       1.152549118459e-02       1.766389805632e+03 
       1.165778674710e-02       1.771314348259e+03 
       1.179012107718e-02       1.776034738139e+03 
       1.192249378470e-02       1.780551946139e+03 
       1.205490451785e-02       1.784869728666e+03 
       1.218735296169e-02       1.788991619564e+03 
       1.231983883670e-02       1.792919553887e+03 
       1.245236189750e-02       1.796656458940e+03 
       1.258492193166e-02       1.800204774869e+03 
       1.271751875856e-02       1.803568352680e+03 
       1.285015222831e-02       1.806748617906e+03 
       1.298282222086e-02       1.809747816965e+03 
       1.311552864504e-02       1.812570279492e+03 
       1.324827143776e-02       1.815217722435e+03 
       1.338105056325e-02       1.817692184698e+03 
       1.351386601230e-02       1.819997279589e+03 
       1.364671780167e-02       1.822135031082e+03 
       1.377960597344e-02       1.824107264728e+03 
       1.391253059447e-02       1.825916941107e+03 
       1.404549175590e-02       1.827566684162e+03 
       1.417848957267e-02       1.829059176932e+03 
       1.431152418312e-02       1.830395488670e+03 
       1.444459574855e-02       1.831579247147e+03 
       1.457770445296e-02       1.832611762202e+03 
       1.471085050263e-02       1.833496016526e+03 
       1.484403412595e-02       1.834233288873e+03 
       1.497725557307e-02       1.834826558348e+03 
       1.511051511578e-02       1.835277807075e+03 
       1.524381304722e-02       1.835589880575e+03 
       1.537714968181e-02       1.835764060381e+03 
       1.551052535508e-02       1.835802774094e+03 
       1.564394042353e-02       1.835708411394e+03 
       1.577739526460e-02       1.835482471957e+03 
       1.591089027659e-02       1.835127609756e+03 
       1.604442587860e-02       1.834645761073e+03 
       1.617800251057e-02       1.834038925473e+03 
       1.631162063321e-02       1.833308676998e+03 
       1.644528072812e-02       1.832457495664e+03 
       1.657898329774e-02       1.831487410560e+03 
       1.671272886552e-02       1.830400045074e+03 
       1.684651797591e-02       1.829197930921e+03 
       1.698035119453e-02       1.827881027424e+03 
       1.711422910829e-02       1.826452783665e+03 
       1.724815232551e-02       1.824916563215e+03 
       1.738212147607e-02       1.823272620109e+03 
       1.751613721165e-02       1.821521194078e+03 
       1.765020020586e-02       1.819666018889e+03 
       1.778431115448e-02       1.817708490798e+03 
       1.791847077570e-02       1.815650829885e+03 
       1.805267981035e-02       1.813493648902e+03 
       1.818693902218e-02       1.811239597820e+03 
       1.832124919813e-02       1.808889987850e+03 
       1.845561114863e-02       1.806446506596e+03 
       1.859002570791e-02       1.803910194690e+03 
       1.872449373435e-02       1.801284101862e+03 
       1.885901611081e-02       1.798569335125e+03 
       1.899359374499e-02       1.795765661844e+03 
       1.912822756984e-02       1.792877732903e+03 
       1.926291854395e-02       1.789903421498e+03 
       1.939766765193e-02       1.786849632858e+03 
       1.953247590490e-02       1.783710760749e+03 
       1.966734434090e-02       1.780497270282e+03 
       1.980227402539e-02       1.777201942687e+03 
       1.993726605171e-02       1.773831636234e+03 
       2.007232154161e-02       1.770386123889e+03 
       2.020744164576e-02       1.766865411338e+03 
       2.034262754430e-02       1.763272985615e+03 
       2.047788044740e-02       1.759610634460e+03 
       2.061320159585e-02       1.755878486477e+03 
       2.074859226165e-02       1.752078265239e+03 
       2.088405374866e-02       1.748211161887e+03 
       2.101958739320e-02       1.744278369133e+03 
       2.115519456477e-02       1.740282030523e+03 
       2.129087666668e-02       1.736225448737e+03 
       2.142663513683e-02       1.732104358913e+03 
       2.156247144836e-02       1.727925663717e+03 
       2.169838711048e-02       1.723687486466e+03 
       2.183438366922e-02       1.719391805745e+03 
       2.197046270824e-02       1.715041464775e+03 
       2.210662584963e-02       1.710633288441e+03 
       2.224287475484e-02       1.706174540904e+03 
       2.237921112549e-02       1.701662094949e+03 
       2.251563670433e-02       1.697098971789e+03 
       2.265215327615e-02       1.692487834990e+03 
       2.278876266879e-02       1.687826953951e+03 
       2.292546675407e-02       1.683118047047e+03 
       2.306226744892e-02       1.678364035196e+03 
       2.319916671634e-02       1.673563614114e+03 
       2.333616656658e-02       1.668722355824e+03 
       2.347326905821e-02       1.663833856345e+03 
       2.361047629933e-02       1.658906986240e+03 
       2.374779044875e-02       1.653938191841e+03 
       2.388521371723e-02       1.648933452565e+03 
       2.402274836877e-02       1.643889022133e+03 
       2.416039672191e-02       1.638807081283e+03 
       2.429816115111e-02       1.633687385525e+03 
       2.443604408816e-02       1.628533319333e+03 
       2.457404802358e-02       1.623348850574e+03 
       2.471217550818e-02       1.618128485669e+03 
       2.485042915456e-02       1.612874642410e+03 
       2.498881163869e-02       1.607594589790e+03 
       2.512732570161e-02       1.602284513917e+03 
       2.526597415106e-02       1.596940837016e+03 
       2.540475986326e-02       1.591573406353e+03 
       2.554368578474e-02       1.586176229804e+03 
       2.568275493415e-02       1.580754020028e+03 
       2.582197040423e-02       1.575305069878e+03 
       2.596133536380e-02       1.569833451213e+03 
       2.610085305981e-02       1.564339192472e+03 
       2.624052681944e-02       1.558825326669e+03 
       2.638036005234e-02       1.553285123248e+03 
       2.652035625289e-02       1.547725900034e+03 
       2.666051900254e-02       1.542145057881e+03 
       2.680085197223e-02       1.536548095312e+03 
       2.694135892492e-02       1.530929376870e+03 
       2.708204371819e-02       1.525296418684e+03 
       2.722291030693e-02       1.519646292174e+03 
       2.736396274610e-02       1.513978390998e+03 
       2.750520519366e-02       1.508293719641e+03 
       2.764664191349e-02       1.502599890985e+03 
       2.778827727855e-02       1.496886774935e+03 
       2.793011577402e-02       1.491167870889e+03 
       2.807216200067e-02       1.485430581315e+03 
       2.821442067826e-02       1.479681305957e+03 
       2.835689664913e-02       1.473923724040e+03 
       2.849959488188e-02       1.468155145003e+03 
       2.864252047521e-02       1.462379453077e+03 
       2.878567866189e-02       1.456587441624e+03 
       2.892907481292e-02       1.450793114952e+03 
       2.907271444176e-02       1.444986853016e+03 
       2.921660320883e-02       1.439178684082e+03 
       2.936074692610e-02       1.433361835145e+03 
       2.950515156188e-02       1.427539094421e+03 
       2.964982324585e-02       1.421709751237e+03 
       2.979476827423e-02       1.415878229304e+03 
       2.993999311512e-02       1.410038808855e+03 
       3.008550441418e-02       1.404198936236e+03 
       3.023130900043e-02       1.398353520579e+03 
       3.037741389232e-02       1.392507183179e+03 
       3.052382630406e-02       1.386655478996e+03 
       3.067055365219e-02       1.380804880342e+03 
       3.081760356246e-02       1.374954926988e+03 
       3.096498387696e-02       1.369096744665e+03 
       3.111270266157e-02       1.363242913202e+03 
       3.126076821374e-02       1.357388379075e+03 
       3.140918907061e-02       1.351537661386e+03 
       3.155797401743e-02       1.345685993960e+03 
       3.170713209641e-02       1.339836269163e+03 
       3.185667261596e-02       1.333984926270e+03 
       3.200660516032e-02       1.328141795762e+03 
       3.215693959961e-02       1.322296673848e+03 
       3.230768610036e-02       1.316453997678e+03 
       3.245885513658e-02       1.310618747583e+03 
       3.261045750122e-02       1.304783950446e+03 
       3.276250431825e-02       1.298955698489e+03 
       3.291500705534e-02       1.293127283179e+03 
       3.306797753706e-02       1.287309679149e+03 
       3.322142795876e-02       1.281492531790e+03 
       3.337537090114e-02       1.275680467767e+03 
       3.352981934552e-02       1.269874905321e+03 
       3.368478668986e-02       1.264076785967e+03 
       3.384028676558e-02       1.258286403399e+03 
       3.399633385529e-02       1.252499043001e+03 
       3.415294271131e-02       1.246720925334e+03 
       3.431012857529e-02       1.240943427351e+03 
       3.446790719873e-02       1.235180438733e+03 
       3.462629486465e-02       1.229422540448e+03 
       3.478530841041e-02       1.223672917472e+03 
       3.494496525174e-02       1.217927424548e+03 
       3.510528340807e-02       1.212192741505e+03 
       3.526628152931e-02       1.206465194127e+03 
       3.542797892406e-02       1.200747721256e+03 
       3.559039558943e-02       1.195036507062e+03 
       3.575355224254e-02       1.189334099899e+03 
       3.591747035388e-02       1.183640716293e+03 
       3.608217218258e-02       1.177953542285e+03 
       3.624768081372e-02       1.172280718003e+03 
       3.641402019791e-02       1.166611456611e+03 
       3.658121519328e-02       1.160951528187e+03 
       3.674929160994e-02       1.155306573030e+03 
       3.691827625726e-02       1.149664227466e+03 
       3.708819699408e-02       1.144034795180e+03 
       3.725908278209e-02       1.138411845439e+03 
       3.743096374260e-02       1.132799274958e+03 
       3.760387121707e-02       1.127194341155e+03 
       3.777783783152e-02       1.121603452194e+03 
       3.795289756526e-02       1.116017520154e+03 
       3.812908582426e-02       1.110439825698e+03 
       3.830643951954e-02       1.104871785744e+03 
       3.848499715090e-02       1.099316468731e+03 
       3.866479889662e-02       1.093764809912e+03 
       3.884588670944e-02       1.088227545411e+03 
       3.902830441954e-02       1.082697231681e+03 
       3.921209784497e-02       1.077170908779e+03 
       3.939731491028e-02       1.071655937249e+03 
       3.958400577404e-02       1.066148995816e+03 
       3.977222296617e-02       1.060650331608e+03 
       3.996202153575e-02       1.055162123235e+03 
       4.015345921057e-02       1.049675783278e+03 
       4.034659656927e-02       1.044203893272e+03 
       4.054149722753e-02       1.038731720648e+03 
       4.073822803946e-02       1.033268939582e+03 
       4.093685931587e-02       1.027816272537e+03 
       4.113746506103e-02       1.022368637693e+03 
       4.134012322983e-02       1.016925250325e+03 
       4.154491600750e-02       1.011486887796e+03 
       4.175193011424e-02       1.006060052381e+03 
       4.196125713745e-02       1.000631017603e+03 
       4.217299389463e-02       9.952057307634e+02 
       4.238724283028e-02       9.897831739882e+02 
       4.260411245072e-02       9.843651482750e+02 
       4.282371780122e-02       9.789533954284e+02 
       4.304618099031e-02       9.735395716973e+02 
       4.327163176708e-02       9.681284974279e+02 
       4.350020815775e-02       9.627184313851e+02 
       4.373205716898e-02       9.573082835870e+02 
       4.396733556642e-02       9.518956859605e+02 
       4.420621073802e-02       9.464811515569e+02 
       4.444886165352e-02       9.410675519504e+02 
       4.469547993279e-02       9.356480841294e+02 
       4.494627103816e-02       9.302242755756e+02 
       4.520145560801e-02       9.247942986685e+02 
       4.546127095178e-02       9.193572449126e+02 
       4.572597273011e-02       9.139139534646e+02 
       4.599583684769e-02       9.084592407231e+02 
       4.627116159134e-02       9.029935974339e+02 
       4.655227005160e-02       8.975165564100e+02 
       4.683951287327e-02       8.920250288933e+02 
       4.713327138864e-02       8.865163860346e+02 
       4.743396119761e-02       8.809921410853e+02 
       4.774203627142e-02       8.754465997982e+02 
       4.805799367218e-02       8.698782039300e+02 
       4.838237899930e-02       8.642846738471e+02 
       4.871579269720e-02       8.586657513081e+02 
       4.905889738787e-02       8.530181520276e+02 
       4.941242642776e-02       8.473321763660e+02 
       4.977719393363e-02       8.416114301121e+02 
       5.015410657858e-02       8.358500077970e+02 
       5.054417753067e-02       8.300417645190e+02 
       5.094854299694e-02       8.241828467192e+02 
       5.136848194969e-02       8.182683971507e+02 
       5.180543975749e-02       8.122924147006e+02 
       5.226105662883e-02       8.062452176947e+02 
       5.273720201245e-02       8.001198921725e+02 
       5.323601639930e-02       7.939070437859e+02 
       5.375996235226e-02       7.875931016582e+02 
       5.431188706854e-02       7.811679790733e+02 
       5.489509937185e-02       7.746142696428e+02 
       5.551346474179e-02       7.679121158728e+02 
       5.617152279776e-02       7.610377454694e+02 
       5.687463248261e-02       7.539609073387e+02 
       5.762915082883e-02       7.466442256083e+02 
       5.844265116553e-02       7.390456141281e+02 
       5.932418495502e-02       7.310980416963e+02 
       6.028458618874e-02       7.227304991861e+02 
       6.133680478464e-02       7.138362652723e+02 
       6.249622935711e-02       7.042798278308e+02 
       6.378091022415e-02       6.938792137708e+02 
       6.521150877653e-02       6.823977511768e+02 
