# Matter power spectrum P(k) at redshift z=5
# for k=1.04575e-05 to 1006.15 h/Mpc,
# number of wavenumbers equal to 625
#    1:k (h/Mpc)              2:P (Mpc/h)^3        
       1.045749810485e-05       2.003235845794e+00 
       2.373043761528e-05       4.485095439955e+00 
       3.705205197341e-05       6.947914478028e+00 
       5.046040160262e-05       9.408352918137e+00 
       6.399420676399e-05       1.187776847990e+01 
       7.769321405898e-05       1.436575461483e+01 
       9.159857522556e-05       1.688120269969e+01 
       1.057532435558e-04       1.943277258602e+01 
       1.202023933008e-04       2.202915988266e+01 
       1.349938674647e-04       2.467927810458e+01 
       1.501786593808e-04       2.739240204969e+01 
       1.658114333596e-04       3.017829344111e+01 
       1.819510894196e-04       3.304731910422e+01 
       1.986613765579e-04       3.601056724061e+01 
       2.160115580438e-04       3.907996597531e+01 
       2.340771306401e-04       4.226840409338e+01 
       2.529405972213e-04       4.558985669279e+01 
       2.726922886571e-04       4.905951294085e+01 
       2.934312256600e-04       5.269390589865e+01 
       3.152660040981e-04       5.651103932370e+01 
       3.383156775180e-04       6.053050725714e+01 
       3.627105977775e-04       6.477359799472e+01 
       3.885931583209e-04       6.926337212840e+01 
       4.161183645581e-04       7.402469901423e+01 
       4.454541324261e-04       7.908423484315e+01 
       4.767811907995e-04       8.447031886442e+01 
       5.102924387431e-04       9.021276186146e+01 
       5.461915893473e-04       9.634249669415e+01 
       5.846909251320e-04       1.028910654719e+02 
       6.260080050474e-04       1.098899157972e+02 
       6.703612104985e-04       1.173694970486e+02 
       7.179641068864e-04       1.253581591892e+02 
       7.690187318622e-04       1.338808874593e+02 
       8.237080952403e-04       1.429579404893e+02 
       8.821883665213e-04       1.526034879559e+02 
       9.445813962622e-04       1.628243756018e+02 
       1.010968318642e-03       1.736191636170e+02 
       1.081384969221e-03       1.849775611272e+02 
       1.155819700313e-03       1.968803570661e+02 
       1.234213899658e-03       2.092998799027e+02 
       1.316465168833e-03       2.222009470838e+02 
       1.402432774394e-03       2.355422065347e+02 
       1.491944724558e-03       2.492777293201e+02 
       1.584805697329e-03       2.633586775831e+02 
       1.680805061300e-03       2.777349028878e+02 
       1.779724358910e-03       2.923563742406e+02 
       1.881343813733e-03       3.071743431318e+02 
       1.985447627100e-03       3.221422237534e+02 
       2.091828006459e-03       3.372162166576e+02 
       2.200287998256e-03       3.523556773478e+02 
       2.310643277916e-03       3.675228228992e+02 
       2.422723085604e-03       3.826841504055e+02 
       2.536370500476e-03       3.978091456838e+02 
       2.651442230081e-03       4.128704444072e+02 
       2.767808065318e-03       4.278436808100e+02 
       2.885350122019e-03       4.427073774686e+02 
       3.003961962113e-03       4.574426327880e+02 
       3.123547662764e-03       4.720330091731e+02 
       3.244020881646e-03       4.864642490694e+02 
       3.365303950641e-03       5.007240727229e+02 
       3.487327018288e-03       5.148019810608e+02 
       3.610027252458e-03       5.286890440548e+02 
       3.733348108622e-03       5.423778140551e+02 
       3.857238664757e-03       5.558619795089e+02 
       3.981653021215e-03       5.691363446725e+02 
       4.106549762154e-03       5.821967714925e+02 
       4.231891474164e-03       5.950398029660e+02 
       4.357644317282e-03       6.076629906660e+02 
       4.483777643502e-03       6.200643007565e+02 
       4.610263657980e-03       6.322425765324e+02 
       4.737077118433e-03       6.441969472386e+02 
       4.864195068510e-03       6.559271772905e+02 
       4.991596601329e-03       6.674334933235e+02 
       5.119262649698e-03       6.787162543336e+02 
       5.247175799933e-03       6.897764626372e+02 
       5.375320126495e-03       7.006150314348e+02 
       5.503681045008e-03       7.112333391857e+02 
       5.632245181484e-03       7.216330908319e+02 
       5.761000255846e-03       7.318158363774e+02 
       5.889934978076e-03       7.417834635723e+02 
       6.019038955502e-03       7.515379583578e+02 
       6.148302609931e-03       7.610813412887e+02 
       6.277717103485e-03       7.704159160708e+02 
       6.407274272154e-03       7.795441028502e+02 
       6.536966566162e-03       7.884678973841e+02 
       6.666786996400e-03       7.971899194751e+02 
       6.796729086234e-03       8.057124614813e+02 
       6.926786828090e-03       8.140380406268e+02 
       7.056954644300e-03       8.221693623093e+02 
       7.187227351743e-03       8.301087955607e+02 
       7.317600129859e-03       8.378587416274e+02 
       7.448068491705e-03       8.454218658385e+02 
       7.578628257697e-03       8.528007163032e+02 
       7.709275531791e-03       8.599973140113e+02 
       7.840006679834e-03       8.670147956801e+02 
       7.970818309857e-03       8.738554237313e+02 
       8.101707254141e-03       8.805213478335e+02 
       8.232670552846e-03       8.870156019857e+02 
       8.363705439076e-03       8.933405371425e+02 
       8.494809325229e-03       8.994980054206e+02 
       8.625979790500e-03       9.054909643508e+02 
       8.757214569446e-03       9.113217818962e+02 
       8.888511541496e-03       9.169927110071e+02 
       9.019868721331e-03       9.225059146593e+02 
       9.151284250039e-03       9.278640104064e+02 
       9.282756386994e-03       9.330689447648e+02 
       9.414283502372e-03       9.381231703699e+02 
       9.545864070270e-03       9.430286541473e+02 
       9.677496662351e-03       9.477876877051e+02 
       9.809179941995e-03       9.524024986365e+02 
       9.940912658886e-03       9.568748645321e+02 
       1.007269364402e-02       9.612070889603e+02 
       1.020452180510e-02       9.654012281342e+02 
       1.033639612222e-02       9.694590997217e+02 
       1.046831564399e-02       9.733830354934e+02 
       1.060027948378e-02       9.771742920911e+02 
       1.073228681639e-02       9.808354951571e+02 
       1.086433687490e-02       9.843697257279e+02 
       1.099642894770e-02       9.877759668310e+02 
       1.112856237583e-02       9.910574693947e+02 
       1.126073655044e-02       9.942157167182e+02 
       1.139295091047e-02       9.972530790596e+02 
       1.152520494046e-02       1.000170735040e+03 
       1.165749816853e-02       1.002970221751e+03 
       1.178983016452e-02       1.005654183313e+03 
       1.192220053825e-02       1.008223265099e+03 
       1.205460893787e-02       1.010679408420e+03 
       1.218705504840e-02       1.013024571628e+03 
       1.231953859028e-02       1.015260429618e+03 
       1.245205931810e-02       1.017387292331e+03 
       1.258461701939e-02       1.019408397105e+03 
       1.271721151347e-02       1.021324251579e+03 
       1.284984265044e-02       1.023136629563e+03 
       1.298251031021e-02       1.024846458513e+03 
       1.311521440158e-02       1.026456444903e+03 
       1.324795486143e-02       1.027967290915e+03 
       1.338073165393e-02       1.029380236039e+03 
       1.351354476986e-02       1.030697323095e+03 
       1.364639422595e-02       1.031919557250e+03 
       1.377928006424e-02       1.033048156419e+03 
       1.391220235156e-02       1.034084869943e+03 
       1.404516117903e-02       1.035031029173e+03 
       1.417815666155e-02       1.035888109892e+03 
       1.431118893742e-02       1.036656433758e+03 
       1.444425816795e-02       1.037338878472e+03 
       1.457736453706e-02       1.037935346713e+03 
       1.471050825103e-02       1.038448016376e+03 
       1.484368953822e-02       1.038877510790e+03 
       1.497690864875e-02       1.039225714587e+03 
       1.511016585436e-02       1.039493115476e+03 
       1.524346144820e-02       1.039681845681e+03 
       1.537679574464e-02       1.039792579294e+03 
       1.551016907917e-02       1.039826547612e+03 
       1.564358180828e-02       1.039785251528e+03 
       1.577703430938e-02       1.039669459369e+03 
       1.591052698073e-02       1.039480630818e+03 
       1.604406024142e-02       1.039219909409e+03 
       1.617763453133e-02       1.038888425159e+03 
       1.631125031118e-02       1.038487047124e+03 
       1.644490806251e-02       1.038017180236e+03 
       1.657860828775e-02       1.037479952622e+03 
       1.671235151029e-02       1.036876447159e+03 
       1.684613827459e-02       1.036207766216e+03 
       1.697996914622e-02       1.035474096720e+03 
       1.711384471207e-02       1.034677373657e+03 
       1.724776558040e-02       1.033819467766e+03 
       1.738173238109e-02       1.032900597649e+03 
       1.751574576578e-02       1.031920789993e+03 
       1.764980640804e-02       1.030882164940e+03 
       1.778391500363e-02       1.029785595383e+03 
       1.791807227070e-02       1.028632203914e+03 
       1.805227895006e-02       1.027422419012e+03 
       1.818653580541e-02       1.026157928580e+03 
       1.832084362365e-02       1.024838907124e+03 
       1.845520321520e-02       1.023466873592e+03 
       1.858961541424e-02       1.022042148460e+03 
       1.872408107911e-02       1.020566570394e+03 
       1.885860109264e-02       1.019040677488e+03 
       1.899317636251e-02       1.017464338750e+03 
       1.912780782161e-02       1.015840124658e+03 
       1.926249642850e-02       1.014167091913e+03 
       1.939724316775e-02       1.012449190440e+03 
       1.953204905044e-02       1.010682427068e+03 
       1.966691511458e-02       1.008873585949e+03 
       1.980184242558e-02       1.007018389999e+03 
       1.993683207674e-02       1.005120582372e+03 
       2.007188518977e-02       1.003180452418e+03 
       2.020700291530e-02       1.001196987191e+03 
       2.034218643342e-02       9.991730467509e+02 
       2.047743695426e-02       9.971094796513e+02 
       2.061275571856e-02       9.950064552589e+02 
       2.074814399829e-02       9.928645404700e+02 
       2.088360309724e-02       9.906846853137e+02 
       2.101913435170e-02       9.884676577966e+02 
       2.115473913110e-02       9.862141662496e+02 
       2.129041883873e-02       9.839271273993e+02 
       2.142617491241e-02       9.816032528983e+02 
       2.156200882525e-02       9.792465559689e+02 
       2.169792208640e-02       9.768561430888e+02 
       2.183391624183e-02       9.744330700822e+02 
       2.196999287514e-02       9.719789057969e+02 
       2.210615360838e-02       9.694919723728e+02 
       2.224240010293e-02       9.669769732401e+02 
       2.237873406036e-02       9.644301648501e+02 
       2.251515722336e-02       9.618549480240e+02 
       2.265167137665e-02       9.592535999888e+02 
       2.278827834800e-02       9.566226250448e+02 
       2.292498000920e-02       9.539646256272e+02 
       2.306177827707e-02       9.512816801699e+02 
       2.319867511457e-02       9.485719790876e+02 
       2.333567253186e-02       9.458384058173e+02 
       2.347277258747e-02       9.430794297809e+02 
       2.360997738941e-02       9.402980902337e+02 
       2.374728909641e-02       9.374928516180e+02 
       2.388470991917e-02       9.346671965515e+02 
       2.402224212160e-02       9.318189829559e+02 
       2.415988802217e-02       9.289493258420e+02 
       2.429764999526e-02       9.260576404425e+02 
       2.443553047256e-02       9.231480417462e+02 
       2.457353194453e-02       9.202201695189e+02 
       2.471165696187e-02       9.172721954931e+02 
       2.484990813710e-02       9.143061426605e+02 
       2.498828814611e-02       9.113234050070e+02 
       2.512679972984e-02       9.083220974822e+02 
       2.526544569592e-02       9.053056223121e+02 
       2.540422892050e-02       9.022739090530e+02 
       2.554315234997e-02       8.992257685151e+02 
       2.568221900292e-02       8.961623890257e+02 
       2.582143197196e-02       8.930843041816e+02 
       2.596079442580e-02       8.899932848675e+02 
       2.610030961129e-02       8.868894012780e+02 
       2.623998085549e-02       8.837743183242e+02 
       2.637981156794e-02       8.806438529379e+02 
       2.651980524290e-02       8.775033347720e+02 
       2.665996546168e-02       8.743500793553e+02 
       2.680029589511e-02       8.711876368063e+02 
       2.694080030602e-02       8.680127967739e+02 
       2.708148255186e-02       8.648298214617e+02 
       2.722234658737e-02       8.616373071048e+02 
       2.736339646738e-02       8.584341938109e+02 
       2.750463634970e-02       8.552215373073e+02 
       2.764607049807e-02       8.520037113857e+02 
       2.778770328530e-02       8.487747916531e+02 
       2.792953919641e-02       8.455427366496e+02 
       2.807158283200e-02       8.423000328883e+02 
       2.821383891169e-02       8.390504337270e+02 
       2.835631227763e-02       8.357951090308e+02 
       2.849900789825e-02       8.325346403444e+02 
       2.864193087208e-02       8.292697648316e+02 
       2.878508643170e-02       8.259964032302e+02 
       2.892847994792e-02       8.227208155069e+02 
       2.907211693401e-02       8.194383733724e+02 
       2.921600305018e-02       8.161569778936e+02 
       2.936014410820e-02       8.128661792986e+02 
       2.950454607619e-02       8.095741320672e+02 
       2.964921508358e-02       8.062782145440e+02 
       2.979415742637e-02       8.029815291475e+02 
       2.993937957245e-02       7.996803778646e+02 
       3.008488816723e-02       7.963770958829e+02 
       3.023069003948e-02       7.930719699518e+02 
       3.037679220740e-02       7.897650064476e+02 
       3.052320188494e-02       7.864565824143e+02 
       3.066992648838e-02       7.831479836888e+02 
       3.081697364318e-02       7.798396511444e+02 
       3.096435119115e-02       7.765265756700e+02 
       3.111206719787e-02       7.732149820962e+02 
       3.126012996051e-02       7.699045849675e+02 
       3.140854801586e-02       7.665963200616e+02 
       3.155733014887e-02       7.632854681022e+02 
       3.170648540141e-02       7.599756494445e+02 
       3.185602308155e-02       7.566672103914e+02 
       3.200595277315e-02       7.533623608163e+02 
       3.215628434598e-02       7.500555671224e+02 
       3.230702796621e-02       7.467521303982e+02 
       3.245819410741e-02       7.434502956804e+02 
       3.260979356215e-02       7.401478507959e+02 
       3.276183745398e-02       7.368503905125e+02 
       3.291433725013e-02       7.335557911269e+02 
       3.306730477471e-02       7.302622612549e+02 
       3.322075222260e-02       7.269694435593e+02 
       3.337469217403e-02       7.236829429026e+02 
       3.352913760980e-02       7.204008893732e+02 
       3.368410192736e-02       7.171186699716e+02 
       3.383959895760e-02       7.138410121938e+02 
       3.399564298254e-02       7.105670175557e+02 
       3.415224875396e-02       7.072957264280e+02 
       3.430943151287e-02       7.040305044853e+02 
       3.446720701016e-02       7.007654541930e+02 
       3.462559152820e-02       6.975083287662e+02 
       3.478460190367e-02       6.942530751918e+02 
       3.494425555159e-02       6.910033228076e+02 
       3.510457049068e-02       6.877563377207e+02 
       3.526556537007e-02       6.845175615160e+02 
       3.542725949757e-02       6.812801102949e+02 
       3.558967286947e-02       6.780477401532e+02 
       3.575282620204e-02       6.748191457620e+02 
       3.591674096486e-02       6.715965617590e+02 
       3.608143941613e-02       6.683791048354e+02 
       3.624694463996e-02       6.651661301343e+02 
       3.641328058594e-02       6.619595483400e+02 
       3.658047211114e-02       6.587567126193e+02 
       3.674854502456e-02       6.555599747638e+02 
       3.691752613441e-02       6.523663886423e+02 
       3.708744329831e-02       6.491785003222e+02 
       3.725832547669e-02       6.459955245620e+02 
       3.743020278953e-02       6.428182226747e+02 
       3.760310657689e-02       6.396454173125e+02 
       3.777706946333e-02       6.364808470983e+02 
       3.795212542663e-02       6.333171841001e+02 
       3.812830987117e-02       6.301602161104e+02 
       3.830565970624e-02       6.270082512305e+02 
       3.848421342989e-02       6.238632088186e+02 
       3.866401121852e-02       6.207214429157e+02 
       3.884509502293e-02       6.175830772966e+02 
       3.902750867120e-02       6.144528819510e+02 
       3.921129797920e-02       6.113264659026e+02 
       3.939651086917e-02       6.082027489429e+02 
       3.958319749728e-02       6.050842259053e+02 
       3.977141039084e-02       6.019717938995e+02 
       3.996120459624e-02       5.988634571607e+02 
       4.015263783837e-02       5.957592507039e+02 
       4.034577069283e-02       5.926577722363e+02 
       4.054066677207e-02       5.895620597674e+02 
       4.073739292676e-02       5.864682794797e+02 
       4.093601946408e-02       5.833795469547e+02 
       4.113662038441e-02       5.802959515655e+02 
       4.133927363850e-02       5.772145155548e+02 
       4.154406140720e-02       5.741339972151e+02 
       4.175107040600e-02       5.710642581917e+02 
       4.196039221729e-02       5.679854736280e+02 
       4.217212365321e-02       5.649149678937e+02 
       4.238636715250e-02       5.618457568471e+02 
       4.260323121533e-02       5.587767117815e+02 
       4.282283088035e-02       5.557134302264e+02 
       4.304528824899e-02       5.526465033279e+02 
       4.327073306268e-02       5.495837719090e+02 
       4.349930333937e-02       5.465218342875e+02 
       4.373114607684e-02       5.434571551229e+02 
       4.396641803108e-02       5.403933684661e+02 
       4.420528657961e-02       5.373290376093e+02 
       4.444793068082e-02       5.342626219389e+02 
       4.469454194227e-02       5.311944352352e+02 
       4.494532581288e-02       5.281225999049e+02 
       4.520050291638e-02       5.250499185576e+02 
       4.546031054620e-02       5.219712339668e+02 
       4.572500434546e-02       5.188886576713e+02 
       4.599486019958e-02       5.157993434544e+02 
       4.627017637418e-02       5.127045545528e+02 
       4.655127593643e-02       5.096031005312e+02 
       4.683850950529e-02       5.064949738005e+02 
       4.713225838436e-02       5.033758950266e+02 
       4.743293814168e-02       5.002472692648e+02 
       4.774100271297e-02       4.971073284736e+02 
       4.805694912064e-02       4.939542994064e+02 
       4.838132291952e-02       4.907881466818e+02 
       4.871472450393e-02       4.876076642321e+02 
       4.905781643925e-02       4.844067956918e+02 
       4.941133201783e-02       4.811891466703e+02 
       4.977608528353e-02       4.779496385784e+02 
       5.015298282618e-02       4.746875807532e+02 
       5.054303771845e-02       4.713985809542e+02 
       5.094738605757e-02       4.680806884916e+02 
       5.136730668884e-02       4.647322680801e+02 
       5.180424483333e-02       4.613490290291e+02 
       5.225984052739e-02       4.579249997870e+02 
       5.273596301788e-02       4.544580703294e+02 
       5.323475255774e-02       4.509404059583e+02 
       5.375867142783e-02       4.473665681941e+02 
       5.431056648953e-02       4.437282775535e+02 
       5.489374616450e-02       4.400176884280e+02 
       5.551207544878e-02       4.362240263665e+02 
       5.617009337762e-02       4.323325631296e+02 
       5.687315818582e-02       4.283270297441e+02 
       5.762762604582e-02       4.241859654077e+02 
       5.844106924229e-02       4.198843098499e+02 
       5.932253797381e-02       4.153871469849e+02 
       6.028286471725e-02       4.106500040676e+02 
       6.133499760901e-02       4.056147939383e+02 
       6.249432323972e-02       4.002043849096e+02 
       6.377888977286e-02       3.943164604566e+02 
       6.520935658723e-02       3.878140227316e+02 
