# Matter power spectrum P(k) at redshift z=4
# for k=1.04575e-05 to 1006.15 h/Mpc,
# number of wavenumbers equal to 625
#    1:k (h/Mpc)              2:P (Mpc/h)^3        
       1.045749810485e-05       2.880242507522e+00 
       2.373043761528e-05       6.448645155096e+00 
       3.705205197341e-05       9.989665046796e+00 
       5.046040160262e-05       1.352725235673e+01 
       6.399420676399e-05       1.707773322088e+01 
       7.769321405898e-05       2.065489696986e+01 
       9.159857522556e-05       2.427152302888e+01 
       1.057532435558e-04       2.794005737844e+01 
       1.202023933008e-04       3.167299667235e+01 
       1.349938674647e-04       3.548314995517e+01 
       1.501786593808e-04       3.938384463682e+01 
       1.658114333596e-04       4.338910686501e+01 
       1.819510894196e-04       4.751383107447e+01 
       1.986613765579e-04       5.177394702535e+01 
       2.160115580438e-04       5.618658938857e+01 
       2.340771306401e-04       6.077027130341e+01 
       2.529405972213e-04       6.554506397122e+01 
       2.726922886571e-04       7.053277979799e+01 
       2.934312256600e-04       7.575715795064e+01 
       3.152660040981e-04       8.124404549997e+01 
       3.383156775180e-04       8.702156825708e+01 
       3.627105977775e-04       9.312027826152e+01 
       3.885931583209e-04       9.957326415013e+01 
       4.161183645581e-04       1.064162015809e+02 
       4.454541324261e-04       1.136873191508e+02 
       4.767811907995e-04       1.214272465821e+02 
       5.102924387431e-04       1.296787077723e+02 
       5.461915893473e-04       1.384860163473e+02 
       5.846909251320e-04       1.478943361031e+02 
       6.260080050474e-04       1.579486691466e+02 
       6.703612104985e-04       1.686925575553e+02 
       7.179641068864e-04       1.801665044546e+02 
       7.690187318622e-04       1.924061634770e+02 
       8.237080952403e-04       2.054403931744e+02 
       8.821883665213e-04       2.192893164850e+02 
       9.445813962622e-04       2.339625678711e+02 
       1.010968318642e-03       2.494579361682e+02 
       1.081384969221e-03       2.657605780318e+02 
       1.155819700313e-03       2.828429394510e+02 
       1.234213899658e-03       3.006654296750e+02 
       1.316465168833e-03       3.191777851433e+02 
       1.402432774394e-03       3.383209808026e+02 
       1.491944724558e-03       3.580294860784e+02 
       1.584805697329e-03       3.782336166425e+02 
       1.680805061300e-03       3.988617797261e+02 
       1.779724358910e-03       4.198424776960e+02 
       1.881343813733e-03       4.411059448010e+02 
       1.985447627100e-03       4.625853929299e+02 
       2.091828006459e-03       4.842179113767e+02 
       2.200287998256e-03       5.059450183706e+02 
       2.310643277916e-03       5.277122791732e+02 
       2.422723085604e-03       5.494713868406e+02 
       2.536370500476e-03       5.711783543968e+02 
       2.651442230081e-03       5.927937568742e+02 
       2.767808065318e-03       6.142825675297e+02 
       2.885350122019e-03       6.356139604835e+02 
       3.003961962113e-03       6.567608634978e+02 
       3.123547662764e-03       6.776997654577e+02 
       3.244020881646e-03       6.984102844026e+02 
       3.365303950641e-03       7.188748512341e+02 
       3.487327018288e-03       7.390784151181e+02 
       3.610027252458e-03       7.590081361696e+02 
       3.733348108622e-03       7.786532700010e+02 
       3.857238664757e-03       7.980046857479e+02 
       3.981653021215e-03       8.170548554026e+02 
       4.106549762154e-03       8.357977836576e+02 
       4.231891474164e-03       8.542284784606e+02 
       4.357644317282e-03       8.723434226349e+02 
       4.483777643502e-03       8.901397148601e+02 
       4.610263657980e-03       9.076157261532e+02 
       4.737077118433e-03       9.247702383302e+02 
       4.864195068510e-03       9.416029358216e+02 
       4.991596601329e-03       9.581141540022e+02 
       5.119262649698e-03       9.743043996271e+02 
       5.247175799933e-03       9.901750938521e+02 
       5.375320126495e-03       1.005727523169e+03 
       5.503681045008e-03       1.020963642743e+03 
       5.632245181484e-03       1.035885885011e+03 
       5.761000255846e-03       1.050496469063e+03 
       5.889934978076e-03       1.064798108495e+03 
       6.019038955502e-03       1.078793665808e+03 
       6.148302609931e-03       1.092486055587e+03 
       6.277717103485e-03       1.105878596919e+03 
       6.407274272154e-03       1.118974771571e+03 
       6.536966566162e-03       1.131777468867e+03 
       6.666786996400e-03       1.144290392459e+03 
       6.796729086234e-03       1.156517021639e+03 
       6.926786828090e-03       1.168460816334e+03 
       7.056954644300e-03       1.180125596989e+03 
       7.187227351743e-03       1.191514821724e+03 
       7.317600129859e-03       1.202632019349e+03 
       7.448068491705e-03       1.213480953709e+03 
       7.578628257697e-03       1.224065429024e+03 
       7.709275531791e-03       1.234388543643e+03 
       7.840006679834e-03       1.244454776448e+03 
       7.970818309857e-03       1.254267343919e+03 
       8.101707254141e-03       1.263829305426e+03 
       8.232670552846e-03       1.273144985541e+03 
       8.363705439076e-03       1.282217734000e+03 
       8.494809325229e-03       1.291050195849e+03 
       8.625979790500e-03       1.299646594964e+03 
       8.757214569446e-03       1.308010316983e+03 
       8.888511541496e-03       1.316144585877e+03 
       9.019868721331e-03       1.324052499152e+03 
       9.151284250039e-03       1.331737803719e+03 
       9.282756386994e-03       1.339203286880e+03 
       9.414283502372e-03       1.346452459311e+03 
       9.545864070270e-03       1.353488133352e+03 
       9.677496662351e-03       1.360313577835e+03 
       9.809179941995e-03       1.366934087931e+03 
       9.940912658886e-03       1.373348499292e+03 
       1.007269364402e-02       1.379561599215e+03 
       1.020452180510e-02       1.385576450058e+03 
       1.033639612222e-02       1.391395646677e+03 
       1.046831564399e-02       1.397022527408e+03 
       1.060027948378e-02       1.402458875588e+03 
       1.073228681639e-02       1.407708268368e+03 
       1.086433687490e-02       1.412773221496e+03 
       1.099642894770e-02       1.417656255081e+03 
       1.112856237583e-02       1.422360214508e+03 
       1.126073655044e-02       1.426887215171e+03 
       1.139295091047e-02       1.431240660286e+03 
       1.152520494046e-02       1.435422242331e+03 
       1.165749816853e-02       1.439434168103e+03 
       1.178983016452e-02       1.443280229710e+03 
       1.192220053825e-02       1.446961351604e+03 
       1.205460893787e-02       1.450480318133e+03 
       1.218705504840e-02       1.453839937754e+03 
       1.231953859028e-02       1.457042612226e+03 
       1.245205931810e-02       1.460088785500e+03 
       1.258461701939e-02       1.462983104749e+03 
       1.271721151347e-02       1.465726300619e+03 
       1.284984265044e-02       1.468320922071e+03 
       1.298251031021e-02       1.470768306070e+03 
       1.311521440158e-02       1.473072341082e+03 
       1.324795486143e-02       1.475234043145e+03 
       1.338073165393e-02       1.477255200218e+03 
       1.351354476986e-02       1.479138742886e+03 
       1.364639422595e-02       1.480886154688e+03 
       1.377928006424e-02       1.482499196133e+03 
       1.391220235156e-02       1.483980296242e+03 
       1.404516117903e-02       1.485331349024e+03 
       1.417815666155e-02       1.486554477241e+03 
       1.431118893742e-02       1.487650216456e+03 
       1.444425816795e-02       1.488622668835e+03 
       1.457736453706e-02       1.489471708188e+03 
       1.471050825103e-02       1.490200452292e+03 
       1.484368953822e-02       1.490809800012e+03 
       1.497690864875e-02       1.491302458289e+03 
       1.511016585436e-02       1.491679127527e+03 
       1.524346144820e-02       1.491942870612e+03 
       1.537679574464e-02       1.492094659120e+03 
       1.551016907917e-02       1.492136259955e+03 
       1.564358180828e-02       1.492069829814e+03 
       1.577703430938e-02       1.491896473519e+03 
       1.591052698073e-02       1.491618290228e+03 
       1.604406024142e-02       1.491236918857e+03 
       1.617763453133e-02       1.490753983150e+03 
       1.631125031118e-02       1.490170736303e+03 
       1.644490806251e-02       1.489489193567e+03 
       1.657860828775e-02       1.488710976803e+03 
       1.671235151029e-02       1.487837640708e+03 
       1.684613827459e-02       1.486870770039e+03 
       1.697996914622e-02       1.485810634701e+03 
       1.711384471207e-02       1.484660014090e+03 
       1.724776558040e-02       1.483421594141e+03 
       1.738173238109e-02       1.482095689531e+03 
       1.751574576578e-02       1.480682342959e+03 
       1.764980640804e-02       1.479184595534e+03 
       1.778391500363e-02       1.477603705888e+03 
       1.791807227070e-02       1.475941283341e+03 
       1.805227895006e-02       1.474197946918e+03 
       1.818653580541e-02       1.472376119783e+03 
       1.832084362365e-02       1.470476054516e+03 
       1.845520321520e-02       1.468499932563e+03 
       1.858961541424e-02       1.466448216440e+03 
       1.872408107911e-02       1.464323545910e+03 
       1.885860109264e-02       1.462126696660e+03 
       1.899317636251e-02       1.459857481000e+03 
       1.912780782161e-02       1.457519589032e+03 
       1.926249642850e-02       1.455111673042e+03 
       1.939724316775e-02       1.452639397659e+03 
       1.953204905044e-02       1.450097039622e+03 
       1.966691511458e-02       1.447494331892e+03 
       1.980184242558e-02       1.444825140678e+03 
       1.993683207674e-02       1.442094840250e+03 
       2.007188518977e-02       1.439303844150e+03 
       2.020700291530e-02       1.436450704241e+03 
       2.034218643342e-02       1.433539523483e+03 
       2.047743695426e-02       1.430571521697e+03 
       2.061275571856e-02       1.427546943688e+03 
       2.074814399829e-02       1.424466604537e+03 
       2.088360309724e-02       1.421331868887e+03 
       2.101913435170e-02       1.418143837598e+03 
       2.115473913110e-02       1.414903534078e+03 
       2.129041883873e-02       1.411615133613e+03 
       2.142617491241e-02       1.408273930097e+03 
       2.156200882525e-02       1.404885676660e+03 
       2.169792208640e-02       1.401449090640e+03 
       2.183391624183e-02       1.397965693295e+03 
       2.196999287514e-02       1.394437731005e+03 
       2.210615360838e-02       1.390862797247e+03 
       2.224240010293e-02       1.387247642766e+03 
       2.237873406036e-02       1.383586897201e+03 
       2.251515722336e-02       1.379885436601e+03 
       2.265167137665e-02       1.376146531908e+03 
       2.278827834800e-02       1.372365164007e+03 
       2.292498000920e-02       1.368545067851e+03 
       2.306177827707e-02       1.364689228176e+03 
       2.319867511457e-02       1.360795044218e+03 
       2.333567253186e-02       1.356866651207e+03 
       2.347277258747e-02       1.352901857922e+03 
       2.360997738941e-02       1.348905024661e+03 
       2.374728909641e-02       1.344873942261e+03 
       2.388470991917e-02       1.340813606148e+03 
       2.402224212160e-02       1.336720952040e+03 
       2.415988802217e-02       1.332597569766e+03 
       2.429764999526e-02       1.328442619457e+03 
       2.443553047256e-02       1.324262010957e+03 
       2.457353194453e-02       1.320055232018e+03 
       2.471165696187e-02       1.315819635051e+03 
       2.484990813710e-02       1.311558145590e+03 
       2.498828814611e-02       1.307272751156e+03 
       2.512679972984e-02       1.302960751291e+03 
       2.526544569592e-02       1.298627026663e+03 
       2.540422892050e-02       1.294271471034e+03 
       2.554315234997e-02       1.289892382328e+03 
       2.568221900292e-02       1.285491473782e+03 
       2.582143197196e-02       1.281069493918e+03 
       2.596079442580e-02       1.276628989528e+03 
       2.610030961129e-02       1.272170052686e+03 
       2.623998085549e-02       1.267695095349e+03 
       2.637981156794e-02       1.263198097837e+03 
       2.651980524290e-02       1.258686708120e+03 
       2.665996546168e-02       1.254157078490e+03 
       2.680029589511e-02       1.249614291061e+03 
       2.694080030602e-02       1.245053757059e+03 
       2.708148255186e-02       1.240481596406e+03 
       2.722234658737e-02       1.235895768833e+03 
       2.736339646738e-02       1.231294772379e+03 
       2.750463634970e-02       1.226680123074e+03 
       2.764607049807e-02       1.222058086010e+03 
       2.778770328530e-02       1.217420172799e+03 
       2.792953919641e-02       1.212777796731e+03 
       2.807158283200e-02       1.208120178043e+03 
       2.821383891169e-02       1.203452701475e+03 
       2.835631227763e-02       1.198777050750e+03 
       2.849900789825e-02       1.194094066285e+03 
       2.864193087208e-02       1.189404778938e+03 
       2.878508643170e-02       1.184703364206e+03 
       2.892847994792e-02       1.179998809104e+03 
       2.907211693401e-02       1.175284451758e+03 
       2.921600305018e-02       1.170571635218e+03 
       2.936014410820e-02       1.165845373044e+03 
       2.950454607619e-02       1.161117350167e+03 
       2.964921508358e-02       1.156383824727e+03 
       2.979415742637e-02       1.151649251789e+03 
       2.993937957245e-02       1.146908313360e+03 
       3.008488816723e-02       1.142164350642e+03 
       3.023069003948e-02       1.137417809335e+03 
       3.037679220740e-02       1.132668667671e+03 
       3.052320188494e-02       1.127917474725e+03 
       3.066992648838e-02       1.123166084314e+03 
       3.081697364318e-02       1.118415120725e+03 
       3.096435119115e-02       1.113657403122e+03 
       3.111206719787e-02       1.108901855599e+03 
       3.126012996051e-02       1.104148077401e+03 
       3.140854801586e-02       1.099397407910e+03 
       3.155733014887e-02       1.094643068360e+03 
       3.170648540141e-02       1.089890273735e+03 
       3.185602308155e-02       1.085139510791e+03 
       3.200595277315e-02       1.080393941531e+03 
       3.215628434598e-02       1.075645644452e+03 
       3.230702796621e-02       1.070902210209e+03 
       3.245819410741e-02       1.066161130611e+03 
       3.260979356215e-02       1.061419221026e+03 
       3.276183745398e-02       1.056684517774e+03 
       3.291433725013e-02       1.051953972949e+03 
       3.306730477471e-02       1.047225013325e+03 
       3.322075222260e-02       1.042497141555e+03 
       3.337469217403e-02       1.037778377335e+03 
       3.352913760980e-02       1.033066047313e+03 
       3.368410192736e-02       1.028353534071e+03 
       3.383959895760e-02       1.023647622617e+03 
       3.399564298254e-02       1.018947022428e+03 
       3.415224875396e-02       1.014250351539e+03 
       3.430943151287e-02       1.009562445695e+03 
       3.446720701016e-02       1.004874846718e+03 
       3.462559152820e-02       1.000198663690e+03 
       3.478460190367e-02       9.955252232731e+02 
       3.494425555159e-02       9.908597349135e+02 
       3.510457049068e-02       9.861982761011e+02 
       3.526556537007e-02       9.815486457039e+02 
       3.542725949757e-02       9.769009740514e+02 
       3.558967286947e-02       9.722606405933e+02 
       3.575282620204e-02       9.676257902211e+02 
       3.591674096486e-02       9.629996200027e+02 
       3.608143941613e-02       9.583808580687e+02 
       3.624694463996e-02       9.537685865012e+02 
       3.641328058594e-02       9.491655417980e+02 
       3.658047211114e-02       9.445679307506e+02 
       3.674854502456e-02       9.399791199525e+02 
       3.691752613441e-02       9.353948918740e+02 
       3.708744329831e-02       9.308188876280e+02 
       3.725832547669e-02       9.262499896000e+02 
       3.743020278953e-02       9.216892817206e+02 
       3.760310657689e-02       9.171350785020e+02 
       3.777706946333e-02       9.125927392935e+02 
       3.795212542663e-02       9.080517562620e+02 
       3.812830987117e-02       9.035204198957e+02 
       3.830565970624e-02       8.989963122680e+02 
       3.848421342989e-02       8.944821841502e+02 
       3.866401121852e-02       8.899728013395e+02 
       3.884509502293e-02       8.854683415379e+02 
       3.902750867120e-02       8.809756399921e+02 
       3.921129797920e-02       8.764883975553e+02 
       3.939651086917e-02       8.720050666426e+02 
       3.958319749728e-02       8.675292235876e+02 
       3.977141039084e-02       8.630621463351e+02 
       3.996120459624e-02       8.586009644638e+02 
       4.015263783837e-02       8.541457439980e+02 
       4.034577069283e-02       8.496944579780e+02 
       4.054066677207e-02       8.452514630126e+02 
       4.073739292676e-02       8.408112512121e+02 
       4.093601946408e-02       8.363782996337e+02 
       4.113662038441e-02       8.319527208348e+02 
       4.133927363850e-02       8.275302571946e+02 
       4.154406140720e-02       8.231091047345e+02 
       4.175107040600e-02       8.187034114087e+02 
       4.196039221729e-02       8.142847453344e+02 
       4.217212365321e-02       8.098779478109e+02 
       4.238636715250e-02       8.054729914840e+02 
       4.260323121533e-02       8.010682689382e+02 
       4.282283088035e-02       7.966717873784e+02 
       4.304528824899e-02       7.922700636475e+02 
       4.327073306268e-02       7.878743374347e+02 
       4.349930333937e-02       7.834797183029e+02 
       4.373114607684e-02       7.790811464618e+02 
       4.396641803108e-02       7.746838283939e+02 
       4.420528657961e-02       7.702856996386e+02 
       4.444793068082e-02       7.658845450557e+02 
       4.469454194227e-02       7.614808234092e+02 
       4.494532581288e-02       7.570718391381e+02 
       4.520050291638e-02       7.526616117342e+02 
       4.546031054620e-02       7.482427420667e+02 
       4.572500434546e-02       7.438182654772e+02 
       4.599486019958e-02       7.393840966320e+02 
       4.627017637418e-02       7.349420508911e+02 
       4.655127593643e-02       7.304904212571e+02 
       4.683850950529e-02       7.260291967964e+02 
       4.713225838436e-02       7.215522531826e+02 
       4.743293814168e-02       7.170616058714e+02 
       4.774100271297e-02       7.125547084591e+02 
       4.805694912064e-02       7.080290375469e+02 
       4.838132291952e-02       7.034845303460e+02 
       4.871472450393e-02       6.989194657975e+02 
       4.905781643925e-02       6.943251658069e+02 
       4.941133201783e-02       6.897067905718e+02 
       4.977608528353e-02       6.850570574536e+02 
       5.015298282618e-02       6.803749678574e+02 
       5.054303771845e-02       6.756542275398e+02 
       5.094738605757e-02       6.708920291906e+02 
       5.136730668884e-02       6.660860037594e+02 
       5.180424483333e-02       6.612299978469e+02 
       5.225984052739e-02       6.563154190329e+02 
       5.273596301788e-02       6.513392362074e+02 
       5.323475255774e-02       6.462901766689e+02 
       5.375867142783e-02       6.411604140877e+02 
       5.431056648953e-02       6.359380512670e+02 
       5.489374616450e-02       6.306117970391e+02 
       5.551207544878e-02       6.251661617221e+02 
       5.617009337762e-02       6.195800149988e+02 
       5.687315818582e-02       6.138299791362e+02 
       5.762762604582e-02       6.078852583564e+02 
       5.844106924229e-02       6.017099208285e+02 
       5.932253797381e-02       5.952539187518e+02 
       6.028286471725e-02       5.884535082968e+02 
       6.133499760901e-02       5.812254729545e+02 
       6.249432323972e-02       5.734593021893e+02 
       6.377888977286e-02       5.650083669085e+02 
       6.520935658723e-02       5.556762725613e+02 
