# dimensionless total [l(l+1)/2pi] C_l's
# for l=2 to 3000, i.e. number of multipoles equal to 2999
#
# -> if you prefer output in CAMB/HealPix/LensPix units/order, set 'format' to 'camb' in input file
# -> if you don't want to see such a header, set 'headers' to 'no' in input file
# -> for CMB lensing (phi), these are C_l^phi-phi for the lensing potential.
#    Remember the conversion factors:
#    C_l^dd (deflection) = l(l+1) C_l^phi-phi
#    C_l^gg (shear/convergence) = 1/4 (l(l+1))^2 C_l^phi-phi
#
# 1:l     2:TT                     3:EE                     4:TE                     5:BB                     6:phiphi                 7:TPhi                   8:Ephi               
    2       1.367598984123e-10       4.938862406184e-15       3.763028598210e-13       0.000000000000e+00       8.045652433024e-09       4.495515995117e-10      -1.995554934120e-12 
    3       1.295405994025e-10       7.147313743106e-15       4.447068492548e-13       0.000000000000e+00       4.960565362739e-09       3.184035727431e-10      -1.621363366969e-12 
    4       1.225410250528e-10       7.036007147292e-15       4.342996867780e-13       0.000000000000e+00       3.442171408275e-09       2.408197910958e-10      -1.166288096957e-12 
    5       1.172127797125e-10       5.382628727148e-15       3.848452573402e-13       0.000000000000e+00       2.561711602027e-09       1.899772211502e-10      -7.487638257572e-13 
    6       1.134784721278e-10       3.395590882529e-15       3.210432138522e-13       0.000000000000e+00       1.995318651155e-09       1.542762952799e-10      -4.076853203363e-13 
    7       1.110001877773e-10       1.895933075583e-15       2.584468015598e-13       0.000000000000e+00       1.605995136052e-09       1.280248979725e-10      -1.565033181222e-13 
    8       1.095366345785e-10       1.089346618856e-15       2.051834600068e-13       0.000000000000e+00       1.324570838690e-09       1.081271291677e-10       6.527700532341e-15 
    9       1.088371935950e-10       7.784772605497e-16       1.648281364437e-13       0.000000000000e+00       1.113200255894e-09       9.269748694004e-11       9.274635104425e-14 
   10       1.086698065355e-10       6.761969549168e-16       1.379999944123e-13       0.000000000000e+00       9.498011022285e-10       8.046357461128e-11       1.192786664166e-13 
   11       1.089550130992e-10       6.021774077808e-16       1.232676378544e-13       0.000000000000e+00       8.014619195110e-10       7.102266714738e-11       1.056508243158e-13 
   12       1.095920683173e-10       5.138184020068e-16       1.180542019750e-13       0.000000000000e+00       6.991251384376e-10       6.258364191846e-11       7.028673002164e-14 
   13       1.104384099181e-10       4.396489427146e-16       1.195697818464e-13       0.000000000000e+00       6.151978336110e-10       5.578910747733e-11       2.906429231998e-14 
   14       1.115501727454e-10       4.070952029627e-16       1.252283317125e-13       0.000000000000e+00       5.454509262786e-10       5.001296910708e-11      -7.398657939334e-15 
   15       1.128081388524e-10       4.142258089345e-16       1.328514690971e-13       0.000000000000e+00       4.868050685826e-10       4.504796128173e-11      -3.278610889264e-14 
   16       1.142028098297e-10       4.415914733916e-16       1.409612879507e-13       0.000000000000e+00       4.369953220617e-10       4.081583266615e-11      -4.502384427308e-14 
   17       1.157146837228e-10       4.746483242901e-16       1.487846245636e-13       0.000000000000e+00       3.943133164263e-10       3.716238543905e-11      -4.552364701523e-14 
   18       1.173237988238e-10       5.140853692961e-16       1.560780736094e-13       0.000000000000e+00       3.573086544686e-10       3.395804947401e-11      -3.787710689748e-14 
   19       1.190443093306e-10       5.688990611223e-16       1.630002992251e-13       0.000000000000e+00       3.253817646691e-10       3.115295118924e-11      -2.583922527944e-14 
   20       1.208426319607e-10       6.493994559007e-16       1.698600335023e-13       0.000000000000e+00       2.972930833807e-10       2.864955807146e-11      -1.385594281213e-14 
   21       1.227090468278e-10       7.566610301779e-16       1.769857266238e-13       0.000000000000e+00       2.725939661893e-10       2.642570991923e-11      -4.458137684734e-15 
   22       1.246143001523e-10       8.876866029908e-16       1.846810489668e-13       0.000000000000e+00       2.506860722848e-10       2.444777286435e-11       5.887700802909e-16 
   23       1.265750469609e-10       1.040099779520e-15       1.929321861183e-13       0.000000000000e+00       2.312629380107e-10       2.269004447981e-11       1.252298767565e-15 
   24       1.285994863995e-10       1.211561369360e-15       2.015544971185e-13       0.000000000000e+00       2.138704295922e-10       2.110799497429e-11      -1.574432008510e-15 
   25       1.306784451206e-10       1.402753663603e-15       2.102681455930e-13       0.000000000000e+00       1.983000092814e-10       1.968485867654e-11      -6.447941639052e-15 
   26       1.327856759658e-10       1.614858809438e-15       2.187023296098e-13       0.000000000000e+00       1.842659231097e-10       1.839884348280e-11      -1.155652811635e-14 
   27       1.349324734170e-10       1.846864486560e-15       2.264835125732e-13       0.000000000000e+00       1.715969513386e-10       1.723758297137e-11      -1.567259599942e-14 
   28       1.371307589664e-10       2.097271951449e-15       2.332361547762e-13       0.000000000000e+00       1.600718674761e-10       1.618303952942e-11      -1.781624713554e-14 
   29       1.393848463997e-10       2.367194522379e-15       2.387973425277e-13       0.000000000000e+00       1.496298844085e-10       1.522703521827e-11      -1.793435302048e-14 
   30       1.416827413176e-10       2.658793178768e-15       2.430727526123e-13       0.000000000000e+00       1.401568647123e-10       1.435400958459e-11      -1.636577995571e-14 
   31       1.440024860775e-10       2.974430894830e-15       2.460035684000e-13       0.000000000000e+00       1.314571474510e-10       1.354133373729e-11      -1.362019881685e-14 
   32       1.463499581288e-10       3.315946532858e-15       2.476592985626e-13       0.000000000000e+00       1.234844790684e-10       1.278737275639e-11      -1.036351972780e-14 
   33       1.487327496723e-10       3.685132781960e-15       2.481856973811e-13       0.000000000000e+00       1.161813071719e-10       1.209252733110e-11      -7.453152193695e-15 
   34       1.511511528575e-10       4.083653920616e-15       2.477408371967e-13       0.000000000000e+00       1.094439970355e-10       1.145283476279e-11      -5.725882956972e-15 
   35       1.536049471605e-10       4.512078018333e-15       2.463419302977e-13       0.000000000000e+00       1.032370366432e-10       1.086513516267e-11      -5.195198910353e-15 
   36       1.560872241595e-10       4.970486272950e-15       2.439663491107e-13       0.000000000000e+00       9.750953823891e-11       1.032283666596e-11      -5.569778270979e-15 
   37       1.585873594996e-10       5.458913966573e-15       2.405737306189e-13       0.000000000000e+00       9.218571683119e-11       9.816885024800e-12      -6.497218302771e-15 
   38       1.611107201486e-10       5.978052800262e-15       2.360442661435e-13       0.000000000000e+00       8.725120436998e-11       9.345393075143e-12      -7.701479267343e-15 
   39       1.636643459172e-10       6.528768449274e-15       2.302179099582e-13       0.000000000000e+00       8.268984455206e-11       8.906652002315e-12      -8.881597694027e-15 
   40       1.662510451166e-10       7.111911099350e-15       2.229086319472e-13       0.000000000000e+00       7.845746188419e-11       8.496252078531e-12      -9.669434741304e-15 
   41       1.688702220435e-10       7.728273010196e-15       2.139443432849e-13       0.000000000000e+00       7.449711599712e-11       8.108749703487e-12      -9.737248291798e-15 
   42       1.715218661441e-10       8.378447319471e-15       2.033065338568e-13       0.000000000000e+00       7.079670172355e-11       7.743886663769e-12      -9.172667855276e-15 
   43       1.742030333462e-10       9.062921364590e-15       1.910331306332e-13       0.000000000000e+00       6.734599341883e-11       7.401999531554e-12      -8.218685252613e-15 
   44       1.769062446769e-10       9.782110115393e-15       1.771818226371e-13       0.000000000000e+00       6.411936834550e-11       7.082189592510e-12      -7.175802104619e-15 
   45       1.796231702518e-10       1.053638597414e-14       1.618129420649e-13       0.000000000000e+00       6.108485810353e-11       6.782821253190e-12      -6.337415324932e-15 
   46       1.823579405783e-10       1.132618818871e-14       1.449293907421e-13       0.000000000000e+00       5.823741194626e-11       6.503441198805e-12      -5.764765726472e-15 
   47       1.851171319565e-10       1.215193937196e-14       1.265206409032e-13       0.000000000000e+00       5.557349741825e-11       6.243255232492e-12      -5.450607172700e-15 
   48       1.879058647134e-10       1.301401257127e-14       1.065794620494e-13       0.000000000000e+00       5.308107424965e-11       6.000507215307e-12      -5.381006860880e-15 
   49       1.907276370542e-10       1.391272922978e-14       8.510198041184e-14       0.000000000000e+00       5.073896301828e-11       5.772409290015e-12      -5.534892408196e-15 
   50       1.935842913076e-10       1.484835746593e-14       6.208078306615e-14       0.000000000000e+00       4.852317397909e-11       5.555903665877e-12      -5.880350714629e-15 
   51       1.964762873196e-10       1.582111109151e-14       3.748188564568e-14       0.000000000000e+00       4.642938348173e-11       5.350353624969e-12      -6.363390947857e-15 
   52       1.994022160727e-10       1.683114680301e-14       1.126161555839e-14       0.000000000000e+00       4.445546721627e-11       5.155462346645e-12      -6.915348508231e-15 
   53       2.023585176569e-10       1.787856186421e-14      -1.662724057734e-14       0.000000000000e+00       4.259477668172e-11       4.970475270866e-12      -7.455275265623e-15 
   54       2.053393213515e-10       1.896339208248e-14      -4.623570478112e-14       0.000000000000e+00       4.083583538545e-11       4.794149454269e-12      -7.889333787981e-15 
   55       2.083386821581e-10       2.008562699833e-14      -7.761041518869e-14       0.000000000000e+00       3.916580614086e-11       4.625156444679e-12      -8.136138239735e-15 
   56       2.113583073817e-10       2.124526450915e-14      -1.107660515911e-13       0.000000000000e+00       3.758259760818e-11       4.463478306972e-12      -8.211536742014e-15 
   57       2.144014693898e-10       2.244226627043e-14      -1.457065289648e-13       0.000000000000e+00       3.608523314773e-11       4.309304724755e-12      -8.163829714575e-15 
   58       2.174707122331e-10       2.367654034761e-14      -1.824327972473e-13       0.000000000000e+00       3.467018976230e-11       4.162616412410e-12      -8.050064828810e-15 
   59       2.205677850956e-10       2.494793986298e-14      -2.209427795606e-13       0.000000000000e+00       3.333124122254e-11       4.023171361497e-12      -7.936442145524e-15 
   60       2.236935757458e-10       2.625626164257e-14      -2.612313104348e-13       0.000000000000e+00       3.205930119219e-11       3.890491087145e-12      -7.898719252712e-15 
   61       2.268485263743e-10       2.760124729303e-14      -3.032909731946e-13       0.000000000000e+00       3.084492712616e-11       3.764018634971e-12      -8.003174989124e-15 
   62       2.300341407320e-10       2.898258977579e-14      -3.471149715193e-13       0.000000000000e+00       2.968684362149e-11       3.643665160986e-12      -8.243590952051e-15 
   63       2.332516987323e-10       3.039992591416e-14      -3.926947957450e-13       0.000000000000e+00       2.858506255380e-11       3.529362189737e-12      -8.590779362300e-15 
   64       2.365017536870e-10       3.185283284277e-14      -4.400193479902e-13       0.000000000000e+00       2.753832010986e-11       3.420892540519e-12      -9.010568751055e-15 
   65       2.397840810634e-10       3.334082673158e-14      -4.890749089091e-13       0.000000000000e+00       2.654400433723e-11       3.317882023594e-12      -9.463592236276e-15 
   66       2.430976272406e-10       3.486336150985e-14      -5.398451044446e-13       0.000000000000e+00       2.559808269384e-11       3.219791136424e-12      -9.905075799112e-15 
   67       2.464404582661e-10       3.641982759015e-14      -5.923108725821e-13       0.000000000000e+00       2.469502959763e-11       3.125906759898e-12      -1.028462656030e-14 
   68       2.498106450840e-10       3.800952401815e-14      -6.464517363771e-13       0.000000000000e+00       2.382929124452e-11       3.035528531166e-12      -1.055740820195e-14 
   69       2.532092420532e-10       3.963157122131e-14      -7.022499968907e-13       0.000000000000e+00       2.300018667349e-11       2.948590375944e-12      -1.072077000833e-14 
   70       2.566378226722e-10       4.128497820724e-14      -7.596873340310e-13       0.000000000000e+00       2.220787419615e-11       2.865150576402e-12      -1.078469358489e-14 
   71       2.600975697043e-10       4.296866565309e-14      -8.187435756101e-13       0.000000000000e+00       2.145186945606e-11       2.785204972350e-12      -1.076114049112e-14 
   72       2.635892478842e-10       4.468146394979e-14      -8.793966975053e-13       0.000000000000e+00       2.073101229464e-11       2.708683636404e-12      -1.066413174831e-14 
   73       2.671131766259e-10       4.642211124648e-14      -9.416228238218e-13       0.000000000000e+00       2.004343361714e-11       2.635447549158e-12      -1.050982734729e-14 
   74       2.706692027297e-10       4.818925149479e-14      -1.005396227054e-12       0.000000000000e+00       1.938652225854e-11       2.565285274354e-12      -1.031660575619e-14 
   75       2.742566730891e-10       4.998143249321e-14      -1.070689328247e-12       0.000000000000e+00       1.875689184954e-11       2.497909634050e-12      -1.010514342817e-14 
   76       2.778748412695e-10       5.179721180123e-14      -1.137472014088e-12       0.000000000000e+00       1.815121548281e-11       2.433031004365e-12      -9.894438295172e-15 
   77       2.815242331677e-10       5.363550110245e-14      -1.205709444042e-12       0.000000000000e+00       1.756897867493e-11       2.370599983029e-12      -9.688867336026e-15 
   78       2.852054819588e-10       5.549528137648e-14      -1.275363841771e-12       0.000000000000e+00       1.701017055479e-11       2.310603138483e-12      -9.488902377864e-15 
   79       2.889188982194e-10       5.737550085214e-14      -1.346395129115e-12       0.000000000000e+00       1.647444550814e-11       2.252988589737e-12      -9.294953130198e-15 
   80       2.926644515318e-10       5.927507526383e-14      -1.418760912239e-12       0.000000000000e+00       1.596110783841e-11       2.197664252710e-12      -9.107363520808e-15 
   81       2.964417520888e-10       6.119288810775e-14      -1.492416467798e-12       0.000000000000e+00       1.546909642764e-11       2.144496086564e-12      -8.926408031636e-15 
   82       3.002500322967e-10       6.312779089828e-14      -1.567314729081e-12       0.000000000000e+00       1.499696939737e-11       2.093306340046e-12      -8.752288034678e-15 
   83       3.040881283806e-10       6.507860342419e-14      -1.643406272177e-12       0.000000000000e+00       1.454288876950e-11       2.043871797818e-12      -8.585128127875e-15 
   84       3.079549280647e-10       6.704406803624e-14      -1.720640831377e-12       0.000000000000e+00       1.410506367007e-11       1.995978692417e-12      -8.425047957944e-15 
   85       3.118508391840e-10       6.902270324113e-14      -1.798972164399e-12       0.000000000000e+00       1.368319796026e-11       1.949601740910e-12      -8.272399395527e-15 
   86       3.157765319421e-10       7.101292619358e-14      -1.878353972086e-12       0.000000000000e+00       1.327725558425e-11       1.904751711466e-12      -8.127562143507e-15 
   87       3.197324840732e-10       7.301309599843e-14      -1.958738452536e-12       0.000000000000e+00       1.288701584390e-11       1.861420607182e-12      -7.990869385842e-15 
   88       3.237189702799e-10       7.502151319439e-14      -2.040076312964e-12       0.000000000000e+00       1.251206576623e-11       1.819580864783e-12      -7.862605392142e-15 
   89       3.277360516706e-10       7.703641923769e-14      -2.122316781556e-12       0.000000000000e+00       1.215179247092e-11       1.779184553322e-12      -7.743003122252e-15 
   90       3.317835651965e-10       7.905599598588e-14      -2.205407619329e-12       0.000000000000e+00       1.180537553779e-11       1.740162572878e-12      -7.632241830834e-15 
   91       3.358611130894e-10       8.107836518146e-14      -2.289295131983e-12       0.000000000000e+00       1.147177937429e-11       1.702423853259e-12      -7.530444671945e-15 
   92       3.399680522988e-10       8.310158793565e-14      -2.373924181761e-12       0.000000000000e+00       1.114974558302e-11       1.665854552699e-12      -7.437676303621e-15 
   93       3.441037280986e-10       8.512373059374e-14      -2.459238285092e-12       0.000000000000e+00       1.083808944038e-11       1.630346329371e-12      -7.353850016013e-15 
   94       3.482682380419e-10       8.714307478434e-14      -2.545179896565e-12       0.000000000000e+00       1.053665691790e-11       1.595887760300e-12      -7.278438340799e-15 
   95       3.524617639102e-10       8.915793815402e-14      -2.631690189786e-12       0.000000000000e+00       1.024549815502e-11       1.562485254311e-12      -7.210714285994e-15 
   96       3.566843306676e-10       9.116661119007e-14      -2.718708988255e-12       0.000000000000e+00       9.964572761144e-12       1.530134807490e-12      -7.149834345658e-15 
   97       3.609357992499e-10       9.316735761547e-14      -2.806174778400e-12       0.000000000000e+00       9.693746357661e-12       1.498821600957e-12      -7.094834862523e-15 
   98       3.652158593533e-10       9.515841478382e-14      -2.894024722615e-12       0.000000000000e+00       9.432787119901e-12       1.468519598645e-12      -7.044628390618e-15 
   99       3.695240222237e-10       9.713799407421e-14      -2.982194672289e-12       0.000000000000e+00       9.181362319115e-12       1.439191145080e-12      -6.998000057894e-15 
  100       3.738596134456e-10       9.910428128622e-14      -3.070619180845e-12       0.000000000000e+00       8.939034864452e-12       1.410786563155e-12      -6.953603928849e-15 
  101       3.782217657312e-10       1.010554370348e-13      -3.159231516771e-12       0.000000000000e+00       8.705259844931e-12       1.383243751911e-12      -6.909959367158e-15 
  102       3.826094117094e-10       1.029895971451e-13      -3.247963676656e-12       0.000000000000e+00       8.479381071423e-12       1.356487784312e-12      -6.865447398291e-15 
  103       3.870212767148e-10       1.049048730476e-13      -3.336746398225e-12       0.000000000000e+00       8.260627618620e-12       1.330430505024e-12      -6.818307072149e-15 
  104       3.914561471792e-10       1.067993901182e-13      -3.425510097874e-12       0.000000000000e+00       8.048287476555e-12       1.304991564202e-12      -6.767027080815e-15 
  105       3.959137326283e-10       1.086714077474e-13      -3.514187799440e-12       0.000000000000e+00       7.842262668810e-12       1.280165621149e-12      -6.711588695080e-15 
  106       4.003939072269e-10       1.105192163022e-13      -3.602712627210e-12       0.000000000000e+00       7.642583025034e-12       1.255963511300e-12      -6.652384731057e-15 
  107       4.048964404428e-10       1.123411014317e-13      -3.691016939657e-12       0.000000000000e+00       7.449234274227e-12       1.232391456225e-12      -6.589839986083e-15 
