# Matter power spectrum P(k) at redshift z=5
# for k=1.04575e-05 to 1006.15 h/Mpc,
# number of wavenumbers equal to 625
#    1:k (h/Mpc)              2:P (Mpc/h)^3        
       1.045749810485e-05       2.001581121730e+00 
       2.373043761528e-05       4.482011802650e+00 
       3.705205197341e-05       6.943622447616e+00 
       5.046040160262e-05       9.402975263515e+00 
       6.399420676399e-05       1.187138712145e+01 
       7.769321405898e-05       1.435842899670e+01 
       9.159857522556e-05       1.687297795034e+01 
       1.057532435558e-04       1.942368411187e+01 
       1.202023933008e-04       2.201923591408e+01 
       1.349938674647e-04       2.466854149904e+01 
       1.501786593808e-04       2.738087154296e+01 
       1.658114333596e-04       3.016598468629e+01 
       1.819510894196e-04       3.303424526258e+01 
       1.986613765579e-04       3.599673986965e+01 
       2.160115580438e-04       3.906539546561e+01 
       2.340771306401e-04       4.225310060498e+01 
       2.529405972213e-04       4.557383049423e+01 
       2.726922886571e-04       4.904277553712e+01 
       2.934312256600e-04       5.267647072734e+01 
       3.152660040981e-04       5.649292293938e+01 
       3.383156775180e-04       6.051173082649e+01 
       3.627105977775e-04       6.475418913512e+01 
       3.885931583209e-04       6.924336667775e+01 
       4.161183645581e-04       7.400414403986e+01 
       4.454541324261e-04       7.906319182025e+01 
       4.767811907995e-04       8.444886823009e+01 
       5.102924387431e-04       9.019100772062e+01 
       5.461915893473e-04       9.632057385809e+01 
       5.846909251320e-04       1.028691465812e+02 
       6.260080050474e-04       1.098682217648e+02 
       6.703612104985e-04       1.173483077398e+02 
       7.179641068864e-04       1.253378269077e+02 
       7.690187318622e-04       1.338618523854e+02 
       8.237080952403e-04       1.429407479833e+02 
       8.821883665213e-04       1.525888071124e+02 
       9.445813962622e-04       1.628130195281e+02 
       1.010968318642e-03       1.736121092670e+02 
       1.081384969221e-03       1.849759697341e+02 
       1.155819700313e-03       1.968855920644e+02 
       1.234213899658e-03       2.093135227638e+02 
       1.316465168833e-03       2.222248095974e+02 
       1.402432774394e-03       2.355783387287e+02 
       1.491944724558e-03       2.493284227133e+02 
       1.584805697329e-03       2.634264629033e+02 
       1.680805061300e-03       2.778225431944e+02 
       1.779724358910e-03       2.924668533207e+02 
       1.881343813733e-03       3.073108494338e+02 
       1.985447627100e-03       3.223081311354e+02 
       2.091828006459e-03       3.374150612713e+02 
       2.200287998256e-03       3.525911345999e+02 
       2.310643277916e-03       3.677986798254e+02 
       2.422723085604e-03       3.830042816646e+02 
       2.536370500476e-03       3.981774903193e+02 
       2.651442230081e-03       4.132909704908e+02 
       2.767808065318e-03       4.283203641203e+02 
       2.885350122018e-03       4.432441906856e+02 
       3.003961962113e-03       4.580435084808e+02 
       3.123547662764e-03       4.727018242689e+02 
       3.244020881646e-03       4.872048052927e+02 
       3.365303950641e-03       5.015400794038e+02 
       3.487327018288e-03       5.156970391398e+02 
       3.610027252458e-03       5.296666312524e+02 
       3.733348108622e-03       5.434412741694e+02 
       3.857238664757e-03       5.570145098222e+02 
       3.981653021215e-03       5.703809891169e+02 
       4.106549762154e-03       5.835364132231e+02 
       4.231891474164e-03       5.964771595520e+02 
       4.357644317282e-03       6.092006129852e+02 
       4.483777643502e-03       6.217045717899e+02 
       4.610263657980e-03       6.339877127423e+02 
       4.737077118433e-03       6.460490018158e+02 
       4.864195068510e-03       6.578880448135e+02 
       4.991596601329e-03       6.695049154798e+02 
       5.119262649698e-03       6.808998250266e+02 
       5.247175799933e-03       6.920736364433e+02 
       5.375320126495e-03       7.030271286849e+02 
       5.503681045008e-03       7.137615545399e+02 
       5.632245181484e-03       7.242784995926e+02 
       5.761000255846e-03       7.345794009570e+02 
       5.889934978076e-03       7.446660406039e+02 
       6.019038955502e-03       7.545403044518e+02 
       6.148302609931e-03       7.642041193859e+02 
       6.277717103485e-03       7.736597022626e+02 
       6.407274272154e-03       7.829093925814e+02 
       6.536966566162e-03       7.919551091439e+02 
       6.666786996400e-03       8.007994029891e+02 
       6.796729086234e-03       8.094445020010e+02 
       6.926786828089e-03       8.178928640846e+02 
       7.056954644300e-03       8.261471411167e+02 
       7.187227351743e-03       8.342096496736e+02 
       7.317600129859e-03       8.420827499280e+02 
       7.448068491705e-03       8.497689714417e+02 
       7.578628257697e-03       8.572708792569e+02 
       7.709275531791e-03       8.645905472575e+02 
       7.840006679834e-03       8.717310284073e+02 
       7.970818309857e-03       8.786944871604e+02 
       8.101707254141e-03       8.854830015075e+02 
       8.232670552846e-03       8.920995130474e+02 
       8.363705439076e-03       8.985463268239e+02 
       8.494809325229e-03       9.048252237082e+02 
       8.625979790500e-03       9.109390888806e+02 
       8.757214569446e-03       9.168902412336e+02 
       8.888511541496e-03       9.226808822351e+02 
       9.019868721331e-03       9.283131266758e+02 
       9.151284250039e-03       9.337895496048e+02 
       9.282756386994e-03       9.391120562839e+02 
       9.414283502372e-03       9.442830680588e+02 
       9.545864070270e-03       9.493045174052e+02 
       9.677496662351e-03       9.541786677222e+02 
       9.809179941995e-03       9.589077212584e+02 
       9.940912658886e-03       9.634934297665e+02 
       1.007269364402e-02       9.679380778956e+02 
       1.020452180510e-02       9.722437032926e+02 
       1.033639612222e-02       9.764121063456e+02 
       1.046831564399e-02       9.804456077476e+02 
       1.060027948378e-02       9.843454400300e+02 
       1.073228681639e-02       9.881141104841e+02 
       1.086433687490e-02       9.917551146599e+02 
       1.099642894770e-02       9.952669491563e+02 
       1.112856237583e-02       9.986530640903e+02 
       1.126073655044e-02       1.001914925290e+03 
       1.139295091047e-02       1.005054907588e+03 
       1.152520494046e-02       1.008074187377e+03 
       1.165749816853e-02       1.010974305682e+03 
       1.178983016452e-02       1.013757920029e+03 
       1.192220053825e-02       1.016425673772e+03 
       1.205460893787e-02       1.018979517720e+03 
       1.218705504840e-02       1.021421419681e+03 
       1.231953859028e-02       1.023753061470e+03 
       1.245205931810e-02       1.025974747803e+03 
       1.258461701939e-02       1.028089734501e+03 
       1.271721151347e-02       1.030098522631e+03 
       1.284984265044e-02       1.032002889451e+03 
       1.298251031021e-02       1.033803757192e+03 
       1.311521440158e-02       1.035503840807e+03 
       1.324795486143e-02       1.037103833477e+03 
       1.338073165393e-02       1.038604974232e+03 
       1.351354476986e-02       1.040009297595e+03 
       1.364639422595e-02       1.041317856617e+03 
       1.377928006424e-02       1.042531893640e+03 
       1.391220235156e-02       1.043652947435e+03 
       1.404516117903e-02       1.044682563966e+03 
       1.417815666155e-02       1.045622210235e+03 
       1.431118893742e-02       1.046472289204e+03 
       1.444425816794e-02       1.047235498793e+03 
       1.457736453706e-02       1.047911752395e+03 
       1.471050825103e-02       1.048503226383e+03 
       1.484368953822e-02       1.049010528243e+03 
       1.497690864875e-02       1.049435550862e+03 
       1.511016585436e-02       1.049778803016e+03 
       1.524346144820e-02       1.050042395163e+03 
       1.537679574464e-02       1.050226994292e+03 
       1.551016907917e-02       1.050333828664e+03 
       1.564358180828e-02       1.050364397789e+03 
       1.577703430938e-02       1.050319461076e+03 
       1.591052698073e-02       1.050200476499e+03 
       1.604406024142e-02       1.050008586129e+03 
       1.617763453133e-02       1.049744917853e+03 
       1.631125031118e-02       1.049410331468e+03 
       1.644490806251e-02       1.049006235165e+03 
       1.657860828775e-02       1.048533761109e+03 
       1.671235151029e-02       1.047993984328e+03 
       1.684613827459e-02       1.047388022907e+03 
       1.697996914622e-02       1.046716044639e+03 
       1.711384471207e-02       1.045979999809e+03 
       1.724776558040e-02       1.045181774687e+03 
       1.738173238109e-02       1.044321581414e+03 
       1.751574576578e-02       1.043399433964e+03 
       1.764980640804e-02       1.042417477973e+03 
       1.778391500363e-02       1.041376590400e+03 
       1.791807227070e-02       1.040277896520e+03 
       1.805227895006e-02       1.039121833460e+03 
       1.818653580541e-02       1.037910098354e+03 
       1.832084362365e-02       1.036642860875e+03 
       1.845520321520e-02       1.035321661860e+03 
       1.858961541424e-02       1.033946811326e+03 
       1.872408107911e-02       1.032520173754e+03 
       1.885860109264e-02       1.031042281447e+03 
       1.899317636251e-02       1.029513006608e+03 
       1.912780782161e-02       1.027934938258e+03 
       1.926249642850e-02       1.026307111007e+03 
       1.939724316775e-02       1.024633528699e+03 
       1.953204905044e-02       1.022910133073e+03 
       1.966691511458e-02       1.021143791917e+03 
       1.980184242558e-02       1.019330164231e+03 
       1.993683207674e-02       1.017473020385e+03 
       2.007188518977e-02       1.015572671586e+03 
       2.020700291530e-02       1.013628054022e+03 
       2.034218643342e-02       1.011642071926e+03 
       2.047743695426e-02       1.009615563260e+03 
       2.061275571856e-02       1.007548689258e+03 
       2.074814399829e-02       1.005442015843e+03 
       2.088360309724e-02       1.003296487942e+03 
       2.101913435170e-02       1.001112878310e+03 
       2.115473913110e-02       9.988918715873e+02 
       2.129041883873e-02       9.966364444815e+02 
       2.142617491241e-02       9.943432124032e+02 
       2.156200882525e-02       9.920162471540e+02 
       2.169792208640e-02       9.896546301122e+02 
       2.183391624183e-02       9.872594080739e+02 
       2.196999287514e-02       9.848321615479e+02 
       2.210615360838e-02       9.823711755369e+02 
       2.224240010293e-02       9.798811988298e+02 
       2.237873406036e-02       9.773584260800e+02 
       2.251515722336e-02       9.748062944672e+02 
       2.265167137665e-02       9.722270916811e+02 
       2.278827834800e-02       9.696172643880e+02 
       2.292498000920e-02       9.669794467626e+02 
       2.306177827707e-02       9.643157211464e+02 
       2.319867511457e-02       9.616242486471e+02 
       2.333567253186e-02       9.589079492099e+02 
       2.347277258747e-02       9.561652542586e+02 
       2.360997738941e-02       9.533992333804e+02 
       2.374728909641e-02       9.506083358379e+02 
       2.388470991917e-02       9.477960879030e+02 
       2.402224212160e-02       9.449602893441e+02 
       2.415988802217e-02       9.421020899363e+02 
       2.429764999526e-02       9.392209017158e+02 
       2.443553047256e-02       9.363208696197e+02 
       2.457353194453e-02       9.334016215451e+02 
       2.471165696187e-02       9.304613394474e+02 
       2.484990813710e-02       9.275020639735e+02 
       2.498828814611e-02       9.245252056294e+02 
       2.512679972984e-02       9.215288446877e+02 
       2.526544569592e-02       9.185164470551e+02 
       2.540422892050e-02       9.154879492636e+02 
       2.554315234997e-02       9.124421676650e+02 
       2.568221900292e-02       9.093802778961e+02 
       2.582143197196e-02       9.063028413847e+02 
       2.596079442580e-02       9.032116718106e+02 
       2.610030961129e-02       9.001068473709e+02 
       2.623998085549e-02       8.969900825881e+02 
       2.637981156794e-02       8.938571033349e+02 
       2.651980524290e-02       8.907133455641e+02 
       2.665996546168e-02       8.875560965637e+02 
       2.680029589511e-02       8.843889850614e+02 
       2.694080030602e-02       8.812087639824e+02 
       2.708148255186e-02       8.780197468615e+02 
       2.722234658737e-02       8.748205201053e+02 
       2.736339646738e-02       8.716100213599e+02 
       2.750463634970e-02       8.683893654266e+02 
       2.764607049807e-02       8.651629730057e+02 
       2.778770328530e-02       8.619248683402e+02 
       2.792953919641e-02       8.586831035306e+02 
       2.807158283200e-02       8.554300582337e+02 
       2.821383891169e-02       8.521695958623e+02 
       2.835631227763e-02       8.489028920290e+02 
       2.849900789825e-02       8.456305506540e+02 
       2.864193087208e-02       8.423533436094e+02 
       2.878508643170e-02       8.390671264571e+02 
       2.892847994792e-02       8.357782454288e+02 
       2.907211693401e-02       8.324820169780e+02 
       2.921600305018e-02       8.291864857837e+02 
       2.936014410820e-02       8.258810390538e+02 
       2.950454607619e-02       8.225739750212e+02 
       2.964921508358e-02       8.192626575161e+02 
       2.979415742637e-02       8.159502071034e+02 
       2.993937957245e-02       8.126328841963e+02 
       3.008488816723e-02       8.093130605273e+02 
       3.023069003948e-02       8.059910338429e+02 
       3.037679220740e-02       8.026668368722e+02 
       3.052320188494e-02       7.993408419674e+02 
       3.066992648838e-02       7.960143694425e+02 
       3.081697364318e-02       7.926878698485e+02 
       3.096435119115e-02       7.893562486705e+02 
       3.111206719787e-02       7.860258491294e+02 
       3.126012996051e-02       7.826963699905e+02 
       3.140854801586e-02       7.793687706545e+02 
       3.155733014887e-02       7.760382533782e+02 
       3.170648540141e-02       7.727085115494e+02 
       3.185602308155e-02       7.693798967210e+02 
       3.200595277315e-02       7.660546548456e+02 
       3.215628434598e-02       7.627271635785e+02 
       3.230702796621e-02       7.594028192513e+02 
       3.245819410741e-02       7.560798411117e+02 
       3.260979356215e-02       7.527559694287e+02 
       3.276183745398e-02       7.494369107230e+02 
       3.291433725013e-02       7.461205053989e+02 
       3.306730477471e-02       7.428049512529e+02 
       3.322075222260e-02       7.394898437676e+02 
       3.337469217403e-02       7.361808986224e+02 
       3.352913760980e-02       7.328762330737e+02 
       3.368410192736e-02       7.295711456078e+02 
       3.383959895760e-02       7.262704730174e+02 
       3.399564298254e-02       7.229732576399e+02 
       3.415224875396e-02       7.196785670232e+02 
       3.430943151287e-02       7.163897934528e+02 
       3.446720701016e-02       7.131009552443e+02 
       3.462559152820e-02       7.098199310019e+02 
       3.478460190367e-02       7.065405761212e+02 
       3.494425555159e-02       7.032665915387e+02 
       3.510457049068e-02       6.999951793224e+02 
       3.526556537007e-02       6.967318598094e+02 
       3.542725949757e-02       6.934696742147e+02 
       3.558967286947e-02       6.902124118032e+02 
       3.575282620204e-02       6.869587238214e+02 
       3.591674096486e-02       6.837109360097e+02 
       3.608143941613e-02       6.804681247043e+02 
       3.624694463996e-02       6.772296270340e+02 
       3.641328058594e-02       6.739973886177e+02 
       3.658047211114e-02       6.707687147565e+02 
       3.674854502456e-02       6.675459874584e+02 
       3.691752613441e-02       6.643262306438e+02 
       3.708744329831e-02       6.611119939474e+02 
       3.725832547669e-02       6.579024978351e+02 
       3.743020278953e-02       6.546985137452e+02 
       3.760310657689e-02       6.514988400538e+02 
       3.777706946333e-02       6.483072727031e+02 
       3.795212542663e-02       6.451163450751e+02 
       3.812830987117e-02       6.419319581728e+02 
       3.830565970624e-02       6.387523583315e+02 
       3.848421342989e-02       6.355795144993e+02 
       3.866401121852e-02       6.324097034289e+02 
       3.884509502293e-02       6.292430539285e+02 
       3.902750867120e-02       6.260843962818e+02 
       3.921129797920e-02       6.229292846853e+02 
       3.939651086917e-02       6.197766063232e+02 
       3.958319749728e-02       6.166288716513e+02 
       3.977141039084e-02       6.134870207577e+02 
       3.996120459624e-02       6.103490016586e+02 
       4.015263783837e-02       6.072148513614e+02 
       4.034577069283e-02       6.040831547016e+02 
       4.054066677207e-02       6.009569758899e+02 
       4.073739292676e-02       5.978324383687e+02 
       4.093601946408e-02       5.947126854478e+02 
       4.113662038441e-02       5.915978498508e+02 
       4.133927363850e-02       5.884848719649e+02 
       4.154406140720e-02       5.853724846510e+02 
       4.175107040600e-02       5.822707773323e+02 
       4.196039221729e-02       5.791595162630e+02 
       4.217212365321e-02       5.760563828641e+02 
       4.238636715250e-02       5.729542847394e+02 
       4.260323121533e-02       5.698520585308e+02 
       4.282283088035e-02       5.667554388593e+02 
       4.304528824899e-02       5.636548413714e+02 
       4.327073306268e-02       5.605582815517e+02 
       4.349930333937e-02       5.574623155605e+02 
       4.373114607684e-02       5.543633501560e+02 
       4.396641803108e-02       5.512651192664e+02 
       4.420528657961e-02       5.481661788663e+02 
       4.444793068082e-02       5.450649842884e+02 
       4.469454194227e-02       5.419618940887e+02 
       4.494532581288e-02       5.388550015936e+02 
       4.520050291638e-02       5.357472012145e+02 
       4.546031054620e-02       5.326332808468e+02 
       4.572500434546e-02       5.295154020796e+02 
       4.599486019958e-02       5.263907128059e+02 
       4.627017637418e-02       5.232605030037e+02 
       4.655127593643e-02       5.201236050843e+02 
       4.683850950528e-02       5.169800537846e+02 
       4.713225838436e-02       5.138255086385e+02 
       4.743293814168e-02       5.106614072874e+02 
       4.774100271297e-02       5.074860132142e+02 
       4.805694912064e-02       5.042975084506e+02 
       4.838132291952e-02       5.010958692191e+02 
       4.871472450393e-02       4.978799284727e+02 
       4.905781643925e-02       4.946434644086e+02 
       4.941133201783e-02       4.913902288769e+02 
       4.977608528353e-02       4.881150059627e+02 
       5.015298282618e-02       4.848171081098e+02 
       5.054303771845e-02       4.814920527261e+02 
       5.094738605757e-02       4.781378696481e+02 
       5.136730668884e-02       4.747528888105e+02 
       5.180424483333e-02       4.713327189224e+02 
       5.225984052739e-02       4.678712971770e+02 
       5.273596301788e-02       4.643664644541e+02 
       5.323475255774e-02       4.608102512957e+02 
       5.375867142783e-02       4.571971426409e+02 
       5.431056648953e-02       4.535187588413e+02 
       5.489374616450e-02       4.497671392094e+02 
       5.551207544878e-02       4.459314095898e+02 
       5.617009337762e-02       4.419966493495e+02 
       5.687315818582e-02       4.379464351668e+02 
       5.762762604582e-02       4.337590543580e+02 
       5.844106924229e-02       4.294091459109e+02 
       5.932253797381e-02       4.248613305501e+02 
       6.028286471725e-02       4.200703988068e+02 
       6.133499760901e-02       4.149771918170e+02 
       6.249432323971e-02       4.095028551244e+02 
       6.377888977286e-02       4.035425425853e+02 
       6.520935658723e-02       3.969555677765e+02 
