# Matter power spectrum P(k) at redshift z=4.5
# for k=1.04575e-05 to 1006.15 h/Mpc,
# number of wavenumbers equal to 625
#    1:k (h/Mpc)              2:P (Mpc/h)^3        
       1.045749810485e-05       2.380811920213e+00 
       2.373043761528e-05       5.331197820249e+00 
       3.705205197341e-05       8.259195412518e+00 
       5.046040160262e-05       1.118450343537e+01 
       6.399420676399e-05       1.412058135397e+01 
       7.769321405898e-05       1.707881184703e+01 
       9.159857522556e-05       2.006975208147e+01 
       1.057532435558e-04       2.310368898031e+01 
       1.202023933008e-04       2.619095478420e+01 
       1.349938674647e-04       2.934214269199e+01 
       1.501786593808e-04       3.256827668268e+01 
       1.658114333596e-04       3.588096059176e+01 
       1.819510894196e-04       3.929251803272e+01 
       1.986613765579e-04       4.281613091596e+01 
       2.160115580438e-04       4.646597968612e+01 
       2.340771306401e-04       5.025738738290e+01 
       2.529405972213e-04       5.420696807543e+01 
       2.726922886571e-04       5.833277945424e+01 
       2.934312256600e-04       6.265447629348e+01 
       3.152660040981e-04       6.719346148064e+01 
       3.383156775180e-04       7.197302795079e+01 
       3.627105977775e-04       7.701848213433e+01 
       3.885931583209e-04       8.235723589208e+01 
       4.161183645581e-04       8.801885044952e+01 
       4.454541324261e-04       9.403500948794e+01 
       4.767811907995e-04       1.004393961183e+02 
       5.102924387431e-04       1.072674404220e+02 
       5.461915893473e-04       1.145559053267e+02 
       5.846909251320e-04       1.223422759907e+02 
       6.260080050474e-04       1.306639260002e+02 
       6.703612104985e-04       1.395570432336e+02 
       7.179641068864e-04       1.490553245650e+02 
       7.690187318622e-04       1.591884763723e+02 
       8.237080952403e-04       1.699806013101e+02 
       8.821883665213e-04       1.814485867301e+02 
       9.445813962622e-04       1.936006462801e+02 
       1.010968318642e-03       2.064351863155e+02 
       1.081384969221e-03       2.199401445484e+02 
       1.155819700313e-03       2.340929145082e+02 
       1.234213899658e-03       2.488608960827e+02 
       1.316465168833e-03       2.642026219511e+02 
       1.402432774394e-03       2.800693430465e+02 
       1.491944724558e-03       2.964069052785e+02 
       1.584805697329e-03       3.131577098672e+02 
       1.680805061300e-03       3.302625880341e+02 
       1.779724358910e-03       3.476624734796e+02 
       1.881343813733e-03       3.652997657031e+02 
       1.985447627100e-03       3.831193625491e+02 
       2.091828006459e-03       4.010693956196e+02 
       2.200287998256e-03       4.191016744479e+02 
       2.310643277916e-03       4.371713465332e+02 
       2.422723085604e-03       4.552386045362e+02 
       2.536370500476e-03       4.732671704196e+02 
       2.651442230081e-03       4.912244952397e+02 
       2.767808065318e-03       5.090815631709e+02 
       2.885350122018e-03       5.268128619970e+02 
       3.003961962113e-03       5.443958888692e+02 
       3.123547662764e-03       5.618110781725e+02 
       3.244020881646e-03       5.790414388147e+02 
       3.365303950641e-03       5.960723062290e+02 
       3.487327018288e-03       6.128911010492e+02 
       3.610027252458e-03       6.294870748081e+02 
       3.733348108622e-03       6.458512133230e+02 
       3.857238664757e-03       6.619758260710e+02 
       3.981653021215e-03       6.778545370086e+02 
       4.106549762154e-03       6.934822202372e+02 
       4.231891474164e-03       7.088545625717e+02 
       4.357644317282e-03       7.239684593766e+02 
       4.483777643502e-03       7.388213089907e+02 
       4.610263657980e-03       7.534115621018e+02 
       4.737077118433e-03       7.677380176070e+02 
       4.864195068510e-03       7.818002335133e+02 
       4.991596601329e-03       7.955983203331e+02 
       5.119262649698e-03       8.091325432347e+02 
       5.247175799933e-03       8.224039359661e+02 
       5.375320126495e-03       8.354134258051e+02 
       5.503681045008e-03       8.481625005543e+02 
       5.632245181484e-03       8.606530435802e+02 
       5.761000255846e-03       8.728867647141e+02 
       5.889934978076e-03       8.848657871916e+02 
       6.019038955502e-03       8.965923622424e+02 
       6.148302609931e-03       9.080687925834e+02 
       6.277717103485e-03       9.192977262836e+02 
       6.407274272154e-03       9.302819559079e+02 
       6.536966566162e-03       9.410237711537e+02 
       6.666786996400e-03       9.515262093462e+02 
       6.796729086234e-03       9.617919199448e+02 
       6.926786828089e-03       9.718238340899e+02 
       7.056954644300e-03       9.816250777924e+02 
       7.187227351743e-03       9.911984146958e+02 
       7.317600129859e-03       1.000546652498e+03 
       7.448068491705e-03       1.009672782457e+03 
       7.578628257697e-03       1.018579883395e+03 
       7.709275531791e-03       1.027270422218e+03 
       7.840006679834e-03       1.035748032853e+03 
       7.970818309857e-03       1.044015293104e+03 
       8.101707254141e-03       1.052074673568e+03 
       8.232670552846e-03       1.059929674164e+03 
       8.363705439076e-03       1.067583029787e+03 
       8.494809325229e-03       1.075036859908e+03 
       8.625979790500e-03       1.082294595357e+03 
       8.757214569446e-03       1.089358991807e+03 
       8.888511541496e-03       1.096232668728e+03 
       9.019868721331e-03       1.102918143881e+03 
       9.151284250039e-03       1.109418481221e+03 
       9.282756386994e-03       1.115735950409e+03 
       9.414283502372e-03       1.121873432629e+03 
       9.545864070270e-03       1.127833227277e+03 
       9.677496662351e-03       1.133618025146e+03 
       9.809179941995e-03       1.139230443768e+03 
       9.940912658886e-03       1.144672563604e+03 
       1.007269364402e-02       1.149947096178e+03 
       1.020452180510e-02       1.155056444575e+03 
       1.033639612222e-02       1.160004763607e+03 
       1.046831564399e-02       1.164791208172e+03 
       1.060027948378e-02       1.169418834347e+03 
       1.073228681639e-02       1.173890605414e+03 
       1.086433687490e-02       1.178208593396e+03 
       1.099642894770e-02       1.182374879147e+03 
       1.112856237583e-02       1.186391817420e+03 
       1.126073655044e-02       1.190261157656e+03 
       1.139295091047e-02       1.193985726050e+03 
       1.152520494046e-02       1.197566922086e+03 
       1.165749816853e-02       1.201006577278e+03 
       1.178983016452e-02       1.204307848458e+03 
       1.192220053825e-02       1.207471499995e+03 
       1.205460893787e-02       1.210499849181e+03 
       1.218705504840e-02       1.213395232960e+03 
       1.231953859028e-02       1.216159648277e+03 
       1.245205931810e-02       1.218793456325e+03 
       1.258461701939e-02       1.221300524462e+03 
       1.271721151347e-02       1.223681447664e+03 
       1.284984265044e-02       1.225938337686e+03 
       1.298251031021e-02       1.228072291454e+03 
       1.311521440158e-02       1.230086535746e+03 
       1.324795486143e-02       1.231981896316e+03 
       1.338073165393e-02       1.233759847380e+03 
       1.351354476986e-02       1.235422809953e+03 
       1.364639422595e-02       1.236972035244e+03 
       1.377928006424e-02       1.238409009891e+03 
       1.391220235156e-02       1.239735579587e+03 
       1.404516117903e-02       1.240953537286e+03 
       1.417815666155e-02       1.242064617550e+03 
       1.431118893742e-02       1.243069304948e+03 
       1.444425816794e-02       1.243970827358e+03 
       1.457736453706e-02       1.244769079153e+03 
       1.471050825103e-02       1.245466646520e+03 
       1.484368953822e-02       1.246064249907e+03 
       1.497690864875e-02       1.246564139284e+03 
       1.511016585436e-02       1.246966919325e+03 
       1.524346144820e-02       1.247275098448e+03 
       1.537679574464e-02       1.247489469407e+03 
       1.551016907917e-02       1.247611493343e+03 
       1.564358180828e-02       1.247642950896e+03 
       1.577703430938e-02       1.247584746428e+03 
       1.591052698073e-02       1.247438612310e+03 
       1.604406024142e-02       1.247205905565e+03 
       1.617763453133e-02       1.246887967426e+03 
       1.631125031118e-02       1.246485820680e+03 
       1.644490806251e-02       1.246001137039e+03 
       1.657860828775e-02       1.245435262877e+03 
       1.671235151029e-02       1.244789474817e+03 
       1.684613827459e-02       1.244065103223e+03 
       1.697996914622e-02       1.243262346958e+03 
       1.711384471207e-02       1.242383523302e+03 
       1.724776558040e-02       1.241430873381e+03 
       1.738173238109e-02       1.240404647745e+03 
       1.751574576578e-02       1.239304865391e+03 
       1.764980640804e-02       1.238134073542e+03 
       1.778391500363e-02       1.236893315491e+03 
       1.791807227070e-02       1.235583927124e+03 
       1.805227895006e-02       1.234206426834e+03 
       1.818653580541e-02       1.232762832593e+03 
       1.832084362365e-02       1.231253343490e+03 
       1.845520321520e-02       1.229679791633e+03 
       1.858961541424e-02       1.228042544491e+03 
       1.872408107911e-02       1.226343815785e+03 
       1.885860109264e-02       1.224584239731e+03 
       1.899317636251e-02       1.222763662021e+03 
       1.912780782161e-02       1.220885159519e+03 
       1.926249642850e-02       1.218947584640e+03 
       1.939724316775e-02       1.216955693856e+03 
       1.953204905044e-02       1.214904667219e+03 
       1.966691511458e-02       1.212802660144e+03 
       1.980184242558e-02       1.210644518737e+03 
       1.993683207674e-02       1.208434719064e+03 
       2.007188518977e-02       1.206173635209e+03 
       2.020700291530e-02       1.203859999446e+03 
       2.034218643342e-02       1.201497264005e+03 
       2.047743695426e-02       1.199086424423e+03 
       2.061275571856e-02       1.196627670711e+03 
       2.074814399829e-02       1.194121678691e+03 
       2.088360309724e-02       1.191569568441e+03 
       2.101913435170e-02       1.188972258702e+03 
       2.115473913110e-02       1.186330565455e+03 
       2.129041883873e-02       1.183648022572e+03 
       2.142617491241e-02       1.180920611585e+03 
       2.156200882525e-02       1.178153168370e+03 
       2.169792208640e-02       1.175344605564e+03 
       2.183391624183e-02       1.172496163600e+03 
       2.196999287514e-02       1.169609722678e+03 
       2.210615360838e-02       1.166683247789e+03 
       2.224240010293e-02       1.163722376923e+03 
       2.237873406036e-02       1.160722592571e+03 
       2.251515722336e-02       1.157687980046e+03 
       2.265167137665e-02       1.154621254029e+03 
       2.278827834800e-02       1.151518196044e+03 
       2.292498000920e-02       1.148381937894e+03 
       2.306177827707e-02       1.145214949898e+03 
       2.319867511457e-02       1.142015050901e+03 
       2.333567253186e-02       1.138785710444e+03 
       2.347277258747e-02       1.135525064737e+03 
       2.360997738941e-02       1.132236758469e+03 
       2.374728909641e-02       1.128918955070e+03 
       2.388470991917e-02       1.125575839837e+03 
       2.402224212160e-02       1.122204800041e+03 
       2.415988802217e-02       1.118807202311e+03 
       2.429764999526e-02       1.115382350069e+03 
       2.443553047256e-02       1.111935164129e+03 
       2.457353194453e-02       1.108465202608e+03 
       2.471165696187e-02       1.104970310562e+03 
       2.484990813710e-02       1.101452909706e+03 
       2.498828814611e-02       1.097914672294e+03 
       2.512679972984e-02       1.094353317656e+03 
       2.526544569592e-02       1.090772967209e+03 
       2.540422892050e-02       1.087173542302e+03 
       2.554315234997e-02       1.083553637958e+03 
       2.568221900292e-02       1.079914648939e+03 
       2.582143197196e-02       1.076257246190e+03 
       2.596079442580e-02       1.072583572527e+03 
       2.610030961129e-02       1.068893735082e+03 
       2.623998085549e-02       1.065189757898e+03 
       2.637981156794e-02       1.061466563786e+03 
       2.651980524290e-02       1.057730620176e+03 
       2.665996546168e-02       1.053978692582e+03 
       2.680029589511e-02       1.050215095345e+03 
       2.694080030602e-02       1.046435970280e+03 
       2.708148255186e-02       1.042646435863e+03 
       2.722234658737e-02       1.038844817661e+03 
       2.736339646738e-02       1.035029856477e+03 
       2.750463634970e-02       1.031202867746e+03 
       2.764607049807e-02       1.027369100731e+03 
       2.778770328530e-02       1.023521462851e+03 
       2.792953919641e-02       1.019669513582e+03 
       2.807158283200e-02       1.015804200744e+03 
       2.821383891169e-02       1.011930114470e+03 
       2.835631227763e-02       1.008048650377e+03 
       2.849900789825e-02       1.004160522448e+03 
       2.864193087208e-02       1.000266645261e+03 
       2.878508643170e-02       9.963620998034e+02 
       2.892847994792e-02       9.924544244253e+02 
       2.907211693401e-02       9.885380429563e+02 
       2.921600305018e-02       9.846225254935e+02 
       2.936014410820e-02       9.806952565952e+02 
       2.950454607619e-02       9.767660940086e+02 
       2.964921508358e-02       9.728319018850e+02 
       2.979415742637e-02       9.688963924702e+02 
       2.993937957245e-02       9.649551262824e+02 
       3.008488816723e-02       9.610109096559e+02 
       3.023069003948e-02       9.570640984152e+02 
       3.037679220740e-02       9.531147337958e+02 
       3.052320188494e-02       9.491632523494e+02 
       3.066992648838e-02       9.452112334594e+02 
       3.081697364318e-02       9.412591954631e+02 
       3.096435119115e-02       9.373011030207e+02 
       3.111206719787e-02       9.333444790287e+02 
       3.126012996051e-02       9.293889669559e+02 
       3.140854801586e-02       9.254357061602e+02 
       3.155733014887e-02       9.214789989229e+02 
       3.170648540141e-02       9.175232291709e+02 
       3.185602308155e-02       9.135688168954e+02 
       3.200595277315e-02       9.096184293636e+02 
       3.215628434598e-02       9.056653873121e+02 
       3.230702796621e-02       9.017160991242e+02 
       3.245819410741e-02       8.977684503647e+02 
       3.260979356215e-02       8.938197613706e+02 
       3.276183745398e-02       8.898767952589e+02 
       3.291433725013e-02       8.859369971058e+02 
       3.306730477471e-02       8.819982302831e+02 
       3.322075222260e-02       8.780600074408e+02 
       3.337469217403e-02       8.741291131866e+02 
       3.352913760980e-02       8.702033185475e+02 
       3.368410192736e-02       8.662770367491e+02 
       3.383959895760e-02       8.623560116106e+02 
       3.399564298254e-02       8.584391063307e+02 
       3.415224875396e-02       8.545252121444e+02 
       3.430943151287e-02       8.506183570894e+02 
       3.446720701016e-02       8.467114384719e+02 
       3.462559152820e-02       8.428138084592e+02 
       3.478460190367e-02       8.389181759441e+02 
       3.494425555159e-02       8.350289330524e+02 
       3.510457049068e-02       8.311427566909e+02 
       3.526556537007e-02       8.272662006798e+02 
       3.542725949757e-02       8.233910030608e+02 
       3.558967286947e-02       8.195216609260e+02 
       3.575282620204e-02       8.156565765394e+02 
       3.591674096486e-02       8.117985104528e+02 
       3.608143941613e-02       8.079463652194e+02 
       3.624694463996e-02       8.040993531938e+02 
       3.641328058594e-02       8.002597846588e+02 
       3.658047211114e-02       7.964244615383e+02 
       3.674854502456e-02       7.925962079825e+02 
       3.691752613441e-02       7.887714959023e+02 
       3.708744329831e-02       7.849533455793e+02 
       3.725832547669e-02       7.811408380553e+02 
       3.743020278953e-02       7.773348870308e+02 
       3.760310657689e-02       7.735340672210e+02 
       3.777706946333e-02       7.697428828270e+02 
       3.795212542663e-02       7.659524712185e+02 
       3.812830987117e-02       7.621698408077e+02 
       3.830565970624e-02       7.583929039423e+02 
       3.848421342989e-02       7.546240007559e+02 
       3.866401121852e-02       7.508587153066e+02 
       3.884509502293e-02       7.470971984995e+02 
       3.902750867120e-02       7.433451819527e+02 
       3.921129797920e-02       7.395973912688e+02 
       3.939651086917e-02       7.358525083834e+02 
       3.958319749728e-02       7.321135068280e+02 
       3.977141039084e-02       7.283815084827e+02 
       3.996120459624e-02       7.246540751223e+02 
       4.015263783837e-02       7.209312544843e+02 
       4.034577069283e-02       7.172113645140e+02 
       4.054066677207e-02       7.134980424806e+02 
       4.073739292676e-02       7.097866868929e+02 
       4.093601946408e-02       7.060810282421e+02 
       4.113662038441e-02       7.023812302741e+02 
       4.133927363850e-02       6.986836562054e+02 
       4.154406140720e-02       6.949868009773e+02 
       4.175107040600e-02       6.913026491424e+02 
       4.196039221729e-02       6.876071699548e+02 
       4.217212365321e-02       6.839213598818e+02 
       4.238636715250e-02       6.802368013748e+02 
       4.260323121533e-02       6.765521075952e+02 
       4.282283088035e-02       6.728740893130e+02 
       4.304528824899e-02       6.691913658087e+02 
       4.327073306268e-02       6.655134552803e+02 
       4.349930333937e-02       6.618362685330e+02 
       4.373114607684e-02       6.581555338230e+02 
       4.396641803108e-02       6.544756897521e+02 
       4.420528657961e-02       6.507950160742e+02 
       4.444793068082e-02       6.471116803464e+02 
       4.469454194227e-02       6.434261074423e+02 
       4.494532581288e-02       6.397360297060e+02 
       4.520050291638e-02       6.360448829117e+02 
       4.546031054620e-02       6.323464784495e+02 
       4.572500434546e-02       6.286433804994e+02 
       4.599486019958e-02       6.249322004695e+02 
       4.627017637418e-02       6.212144688335e+02 
       4.655127593643e-02       6.174887955005e+02 
       4.683850950528e-02       6.137552203960e+02 
       4.713225838436e-02       6.100085919457e+02 
       4.743293814168e-02       6.062506106915e+02 
       4.774100271297e-02       6.024792137321e+02 
       4.805694912064e-02       5.986922407086e+02 
       4.838132291952e-02       5.948896590299e+02 
       4.871472450393e-02       5.910700837879e+02 
       4.905781643925e-02       5.872261265630e+02 
       4.941133201783e-02       5.833622419746e+02 
       4.977608528353e-02       5.794722315653e+02 
       5.015298282618e-02       5.755552805963e+02 
       5.054303771845e-02       5.716060644418e+02 
       5.094738605757e-02       5.676222438950e+02 
       5.136730668884e-02       5.636018396583e+02 
       5.180424483333e-02       5.595396288684e+02 
       5.225984052739e-02       5.554284244833e+02 
       5.273596301788e-02       5.512656584307e+02 
       5.323475255774e-02       5.470418627932e+02 
       5.375867142783e-02       5.427504967335e+02 
       5.431056648953e-02       5.383816121819e+02 
       5.489374616450e-02       5.339257511431e+02 
       5.551207544878e-02       5.293700060139e+02 
       5.617009337762e-02       5.246966529901e+02 
       5.687315818582e-02       5.198861985581e+02 
       5.762762604582e-02       5.149128462546e+02 
       5.844106924229e-02       5.097464854970e+02 
       5.932253797381e-02       5.043451034190e+02 
       6.028286471725e-02       4.986550105537e+02 
       6.133499760901e-02       4.926059669219e+02 
       6.249432323971e-02       4.861043492113e+02 
       6.377888977286e-02       4.790257007481e+02 
       6.520935658723e-02       4.712030364165e+02 
