# Matter power spectrum P(k) at redshift z=5
# for k=1.04575e-05 to 1006.15 h/Mpc,
# number of wavenumbers equal to 625
#    1:k (h/Mpc)              2:P (Mpc/h)^3        
       1.045749810485e-05       2.228013045856e+00 
       2.373043761528e-05       4.939543311092e+00 
       3.705205197341e-05       7.611101148239e+00 
       5.046040160262e-05       1.026826258861e+01 
       6.399420676399e-05       1.292646991510e+01 
       7.769321405898e-05       1.559777373557e+01 
       9.159857522556e-05       1.829277046745e+01 
       1.057532435558e-04       2.102141786406e+01 
       1.202023933008e-04       2.379346730255e+01 
       1.349938674647e-04       2.661873632884e+01 
       1.501786593808e-04       2.950730613675e+01 
       1.658114333596e-04       3.246968235080e+01 
       1.819510894196e-04       3.551693704229e+01 
       1.986613765579e-04       3.866084292992e+01 
       2.160115580438e-04       4.191400481751e+01 
       2.340771306401e-04       4.528999127004e+01 
       2.529405972213e-04       4.880346802791e+01 
       2.726922886571e-04       5.247033328449e+01 
       2.934312256600e-04       5.630785234246e+01 
       3.152660040981e-04       6.033478873497e+01 
       3.383156775180e-04       6.457152638591e+01 
       3.627105977775e-04       6.904017429325e+01 
       3.885931583209e-04       7.376464256520e+01 
       4.161183645581e-04       7.877067532603e+01 
       4.454541324261e-04       8.408582057028e+01 
       4.767811907995e-04       8.973931507818e+01 
       5.102924387431e-04       9.576185516050e+01 
       5.461915893473e-04       1.021852258207e+02 
       5.846909251320e-04       1.090417579212e+02 
       6.260080050474e-04       1.163635913160e+02 
       6.703612104985e-04       1.241817291653e+02 
       7.179641068864e-04       1.325248933137e+02 
       7.690187318622e-04       1.414182133711e+02 
       8.237080952403e-04       1.508818219344e+02 
       8.821883665213e-04       1.609294563213e+02 
       9.445813962622e-04       1.715672010833e+02 
       1.010968318642e-03       1.827925196765e+02 
       1.081384969221e-03       1.945937042706e+02 
       1.155819700313e-03       2.069498408257e+02 
       1.234213899658e-03       2.198313233961e+02 
       1.316465168833e-03       2.332008714644e+02 
       1.402432774394e-03       2.470149466366e+02 
       1.491944724558e-03       2.612254209714e+02 
       1.584805697329e-03       2.757813129037e+02 
       1.680805061300e-03       2.906304428251e+02 
       1.779724358910e-03       3.057209041509e+02 
       1.881343813733e-03       3.210022558913e+02 
       1.985447627100e-03       3.364264172635e+02 
       2.091828006459e-03       3.519482936134e+02 
       2.200287998256e-03       3.675261413583e+02 
       2.310643277916e-03       3.831212410221e+02 
       2.422723085604e-03       3.986993609496e+02 
       2.536370500476e-03       4.142294005977e+02 
       2.651442230081e-03       4.296835344552e+02 
       2.767808065318e-03       4.450370593992e+02 
       2.885350122018e-03       4.602682826952e+02 
       3.003961962113e-03       4.753581629157e+02 
       3.123547662764e-03       4.902902099004e+02 
       3.244020881646e-03       5.050501805714e+02 
       3.365303950641e-03       5.196258669899e+02 
       3.487327018288e-03       5.340068891862e+02 
       3.610027252458e-03       5.481844735371e+02 
       3.733348108622e-03       5.621513639424e+02 
       3.857238664757e-03       5.759014588666e+02 
       3.981653021215e-03       5.894297937751e+02 
       4.106549762154e-03       6.027324780522e+02 
       4.231891474164e-03       6.158063068028e+02 
       4.357644317282e-03       6.286491008746e+02 
       4.483777643502e-03       6.412590924048e+02 
       4.610263657980e-03       6.536354032150e+02 
       4.737077118433e-03       6.657774361328e+02 
       4.864195068510e-03       6.776852356347e+02 
       4.991596601329e-03       6.893593098612e+02 
       5.119262649698e-03       7.008002901218e+02 
       5.247175799933e-03       7.120094599155e+02 
       5.375320126495e-03       7.229879977239e+02 
       5.503681045008e-03       7.337375510744e+02 
       5.632245181484e-03       7.442600913628e+02 
       5.761000255846e-03       7.545574197041e+02 
       5.889934978076e-03       7.646316743408e+02 
       6.019038955502e-03       7.744850836819e+02 
       6.148302609931e-03       7.841199022310e+02 
       6.277717103485e-03       7.935386667519e+02 
       6.407274272154e-03       8.027440252036e+02 
       6.536966566162e-03       8.117381804456e+02 
       6.666786996400e-03       8.205239707741e+02 
       6.796729086234e-03       8.291038910906e+02 
       6.926786828089e-03       8.374806608035e+02 
       7.056954644300e-03       8.456571873715e+02 
       7.187227351743e-03       8.536360252457e+02 
       7.317600129859e-03       8.614197646984e+02 
       7.448068491705e-03       8.690112399750e+02 
       7.578628257697e-03       8.764131903362e+02 
       7.709275531791e-03       8.836277869178e+02 
       7.840006679834e-03       8.906583520105e+02 
       7.970818309857e-03       8.975072885734e+02 
       8.101707254141e-03       9.041769008226e+02 
       8.232670552846e-03       9.106703649044e+02 
       8.363705439076e-03       9.169901972947e+02 
       8.494809325229e-03       9.231383707654e+02 
       8.625979790500e-03       9.291179765941e+02 
       8.757214569446e-03       9.349315200008e+02 
       8.888511541496e-03       9.405813787964e+02 
       9.019868721331e-03       9.460698351471e+02 
       9.151284250039e-03       9.513996333477e+02 
       9.282756386994e-03       9.565728282803e+02 
       9.414283502372e-03       9.615919941755e+02 
       9.545864070270e-03       9.664592010014e+02 
       9.677496662351e-03       9.711768497624e+02 
       9.809179941995e-03       9.757472731505e+02 
       9.940912658886e-03       9.801723398319e+02 
       1.007269364402e-02       9.844544553430e+02 
       1.020452180510e-02       9.885957683884e+02 
       1.033639612222e-02       9.925981815512e+02 
       1.046831564399e-02       9.964641213784e+02 
       1.060027948378e-02       1.000194903876e+03 
       1.073228681639e-02       1.003793136239e+03 
       1.086433687490e-02       1.007262432969e+03 
       1.099642894770e-02       1.010601302774e+03 
       1.112856237583e-02       1.013813305999e+03 
       1.126073655044e-02       1.016899976665e+03 
       1.139295091047e-02       1.019863768178e+03 
       1.152520494046e-02       1.022705914815e+03 
       1.165749816853e-02       1.025428018545e+03 
       1.178983016452e-02       1.028032811376e+03 
       1.192220053825e-02       1.030520980313e+03 
       1.205460893787e-02       1.032894536602e+03 
       1.218705504840e-02       1.035155506910e+03 
       1.231953859028e-02       1.037305626388e+03 
       1.245205931810e-02       1.039345233909e+03 
       1.258461701939e-02       1.041277657413e+03 
       1.271721151347e-02       1.043103433083e+03 
       1.284984265044e-02       1.044824389295e+03 
       1.298251031021e-02       1.046441488442e+03 
       1.311521440158e-02       1.047957507108e+03 
       1.324795486143e-02       1.049373175057e+03 
       1.338073165393e-02       1.050689774889e+03 
       1.351354476986e-02       1.051909393498e+03 
       1.364639422595e-02       1.053033124806e+03 
       1.377928006424e-02       1.054062254402e+03 
       1.391220235156e-02       1.054998367028e+03 
       1.404516117903e-02       1.055843056060e+03 
       1.417815666155e-02       1.056597833547e+03 
       1.431118893742e-02       1.057263135825e+03 
       1.444425816794e-02       1.057841717619e+03 
       1.457736453706e-02       1.058333520981e+03 
       1.471050825103e-02       1.058740773545e+03 
       1.484368953822e-02       1.059064117866e+03 
       1.497690864875e-02       1.059305493670e+03 
       1.511016585436e-02       1.059465443017e+03 
       1.524346144820e-02       1.059546123280e+03 
       1.537679574464e-02       1.059548234397e+03 
       1.551016907917e-02       1.059473041834e+03 
       1.564358180828e-02       1.059322083409e+03 
       1.577703430938e-02       1.059096149357e+03 
       1.591052698073e-02       1.058796733304e+03 
       1.604406024142e-02       1.058425008959e+03 
       1.617763453133e-02       1.057982134401e+03 
       1.631125031118e-02       1.057468996234e+03 
       1.644490806251e-02       1.056887032422e+03 
       1.657860828775e-02       1.056237401430e+03 
       1.671235151029e-02       1.055521202414e+03 
       1.684613827459e-02       1.054739577037e+03 
       1.697996914622e-02       1.053892708499e+03 
       1.711384471207e-02       1.052982573879e+03 
       1.724776558040e-02       1.052011083775e+03 
       1.738173238109e-02       1.050978462815e+03 
       1.751574576578e-02       1.049884735136e+03 
       1.764980640804e-02       1.048732069224e+03 
       1.778391500363e-02       1.047521356050e+03 
       1.791807227070e-02       1.046253735230e+03 
       1.805227895006e-02       1.044929653734e+03 
       1.818653580541e-02       1.043550825141e+03 
       1.832084362365e-02       1.042117426461e+03 
       1.845520321520e-02       1.040631013045e+03 
       1.858961541424e-02       1.039091902199e+03 
       1.872408107911e-02       1.037501974093e+03 
       1.885860109264e-02       1.035861769107e+03 
       1.899317636251e-02       1.034171165259e+03 
       1.912780782161e-02       1.032432769447e+03 
       1.926249642850e-02       1.030645618604e+03 
       1.939724316775e-02       1.028813740147e+03 
       1.953204905044e-02       1.026933066259e+03 
       1.966691511458e-02       1.025010499901e+03 
       1.980184242558e-02       1.023041690530e+03 
       1.993683207674e-02       1.021030431674e+03 
       2.007188518977e-02       1.018977044066e+03 
       2.020700291530e-02       1.016880470014e+03 
       2.034218643342e-02       1.014743633495e+03 
       2.047743695426e-02       1.012567385103e+03 
       2.061275571856e-02       1.010351897520e+03 
       2.074814399829e-02       1.008097749608e+03 
       2.088360309724e-02       1.005805900612e+03 
       2.101913435170e-02       1.003477137449e+03 
       2.115473913110e-02       1.001112158831e+03 
       2.129041883873e-02       9.987139604957e+02 
       2.142617491241e-02       9.962791634023e+02 
       2.156200882525e-02       9.938118606947e+02 
       2.169792208640e-02       9.913111445195e+02 
       2.183391624183e-02       9.887780766072e+02 
       2.196999287514e-02       9.862142525429e+02 
       2.210615360838e-02       9.836179673330e+02 
       2.224240010293e-02       9.809939882856e+02 
       2.237873406036e-02       9.783385171212e+02 
       2.251515722336e-02       9.756550062088e+02 
       2.265167137665e-02       9.729457557252e+02 
       2.278827834800e-02       9.702072195454e+02 
       2.292498000920e-02       9.674420431372e+02 
       2.306177827707e-02       9.646523187188e+02 
       2.319867511457e-02       9.618362143323e+02 
       2.333567253186e-02       9.589966575482e+02 
       2.347277258747e-02       9.561320856803e+02 
       2.360997738941e-02       9.532455734823e+02 
       2.374728909641e-02       9.503355740392e+02 
       2.388470991917e-02       9.474056156759e+02 
       2.402224212160e-02       9.444535007486e+02 
       2.415988802217e-02       9.414803793006e+02 
       2.429764999526e-02       9.384856637201e+02 
       2.443553047256e-02       9.354734946113e+02 
       2.457353194453e-02       9.324434972027e+02 
       2.471165696187e-02       9.293938513349e+02 
       2.484990813710e-02       9.263265913668e+02 
       2.498828814611e-02       9.232431201702e+02 
       2.512679972984e-02       9.201415140687e+02 
       2.526544569592e-02       9.170252265437e+02 
       2.540422892050e-02       9.138941848835e+02 
       2.554315234997e-02       9.107471984698e+02 
       2.568221900292e-02       9.075854308884e+02 
       2.582143197196e-02       9.044094314093e+02 
       2.596079442580e-02       9.012209986343e+02 
       2.610030961129e-02       8.980201976224e+02 
       2.623998085549e-02       8.948087258822e+02 
       2.637981156794e-02       8.915823064738e+02 
       2.651980524290e-02       8.883463478809e+02 
       2.665996546168e-02       8.850981304627e+02 
       2.680029589511e-02       8.818412582983e+02 
       2.694080030602e-02       8.785724785090e+02 
       2.708148255186e-02       8.752960772162e+02 
       2.722234658737e-02       8.720106296128e+02 
       2.736339646738e-02       8.687150615271e+02 
       2.750463634970e-02       8.654104694483e+02 
       2.764607049807e-02       8.621012435875e+02 
       2.778770328530e-02       8.587814137455e+02 
       2.792953919641e-02       8.554589878410e+02 
       2.807158283200e-02       8.521263589300e+02 
       2.821383891169e-02       8.487873618205e+02 
       2.835631227763e-02       8.454431525106e+02 
       2.849900789825e-02       8.420943188886e+02 
       2.864193087208e-02       8.387416151407e+02 
       2.878508643170e-02       8.353809011601e+02 
       2.892847994792e-02       8.320184825400e+02 
       2.907211693401e-02       8.286496842950e+02 
       2.921600305018e-02       8.252825007389e+02 
       2.936014410820e-02       8.219063567936e+02 
       2.950454607619e-02       8.185295006053e+02 
       2.964921508358e-02       8.151492967705e+02 
       2.979415742637e-02       8.117688390487e+02 
       2.993937957245e-02       8.083843961761e+02 
       3.008488816723e-02       8.049983178830e+02 
       3.023069003948e-02       8.016108903377e+02 
       3.037679220740e-02       7.982221363765e+02 
       3.052320188494e-02       7.948324171503e+02 
       3.066992648838e-02       7.914430360688e+02 
       3.081697364318e-02       7.880544325957e+02 
       3.096435119115e-02       7.846615332834e+02 
       3.111206719787e-02       7.812706363935e+02 
       3.126012996051e-02       7.778814333694e+02 
       3.140854801586e-02       7.744948696518e+02 
       3.155733014887e-02       7.711061696470e+02 
       3.170648540141e-02       7.677189965758e+02 
       3.185602308155e-02       7.643336916852e+02 
       3.200595277315e-02       7.609524792761e+02 
       3.215628434598e-02       7.575697659817e+02 
       3.230702796621e-02       7.541909055302e+02 
       3.245819410741e-02       7.508141220008e+02 
       3.260979356215e-02       7.474371639590e+02 
       3.276183745398e-02       7.440656921168e+02 
       3.291433725013e-02       7.406975544983e+02 
       3.306730477471e-02       7.373309548396e+02 
       3.322075222260e-02       7.339654849064e+02 
       3.337469217403e-02       7.306068129738e+02 
       3.352913760980e-02       7.272530607573e+02 
       3.368410192736e-02       7.238995579546e+02 
       3.383959895760e-02       7.205510971991e+02 
       3.399564298254e-02       7.172067224314e+02 
       3.415224875396e-02       7.138655019399e+02 
       3.430943151287e-02       7.105307941327e+02 
       3.446720701016e-02       7.071966607053e+02 
       3.462559152820e-02       7.038709091165e+02 
       3.478460190367e-02       7.005474398126e+02 
       3.494425555159e-02       6.972299177607e+02 
       3.510457049068e-02       6.939155641019e+02 
       3.526556537007e-02       6.906098459155e+02 
       3.542725949757e-02       6.873058614021e+02 
       3.558967286947e-02       6.840073733413e+02 
       3.575282620204e-02       6.807130157383e+02 
       3.591674096486e-02       6.774251019801e+02 
       3.608143941613e-02       6.741427127675e+02 
       3.624694463996e-02       6.708651886459e+02 
       3.641328058594e-02       6.675944535567e+02 
       3.658047211114e-02       6.643278349790e+02 
       3.674854502456e-02       6.610676885041e+02 
       3.691752613441e-02       6.578110651497e+02 
       3.708744329831e-02       6.545604917645e+02 
       3.725832547669e-02       6.513151945454e+02 
       3.743020278953e-02       6.480759327554e+02 
       3.760310657689e-02       6.448415146320e+02 
       3.777706946333e-02       6.416157000977e+02 
       3.795212542663e-02       6.383910960335e+02 
       3.812830987117e-02       6.351735424100e+02 
       3.830565970624e-02       6.319613042810e+02 
       3.848421342989e-02       6.287563272292e+02 
       3.866401121852e-02       6.255549272456e+02 
       3.884509502293e-02       6.223572277566e+02 
       3.902750867120e-02       6.191680162034e+02 
       3.921129797920e-02       6.159828845824e+02 
       3.939651086917e-02       6.128007289102e+02 
       3.958319749728e-02       6.096240366861e+02 
       3.977141039084e-02       6.064537322798e+02 
       3.996120459624e-02       6.032877864427e+02 
       4.015263783837e-02       6.001262234258e+02 
       4.034577069283e-02       5.969676452709e+02 
       4.054066677207e-02       5.938150735940e+02 
       4.073739292676e-02       5.906646712158e+02 
       4.093601946408e-02       5.875195341196e+02 
       4.113662038441e-02       5.843797847250e+02 
       4.133927363850e-02       5.812423842109e+02 
       4.154406140720e-02       5.781060783870e+02 
       4.175107040600e-02       5.749808155040e+02 
       4.196039221729e-02       5.718465931187e+02 
       4.217212365321e-02       5.687208559662e+02 
       4.238636715250e-02       5.655965811631e+02 
       4.260323121533e-02       5.624725983790e+02 
       4.282283088035e-02       5.593545457285e+02 
       4.304528824899e-02       5.562329370158e+02 
       4.327073306268e-02       5.531156545248e+02 
       4.349930333937e-02       5.499992693106e+02 
       4.373114607684e-02       5.468802042744e+02 
       4.396641803108e-02       5.437621078586e+02 
       4.420528657961e-02       5.406435197483e+02 
       4.444793068082e-02       5.375228753425e+02 
       4.469454194227e-02       5.344004898601e+02 
       4.494532581288e-02       5.312744389868e+02 
       4.520050291638e-02       5.281475310921e+02 
       4.546031054620e-02       5.250145812198e+02 
       4.572500434546e-02       5.218776700941e+02 
       4.599486019958e-02       5.187339406308e+02 
       4.627017637418e-02       5.155846117600e+02 
       4.655127593643e-02       5.124284810093e+02 
       4.683850950528e-02       5.092655289691e+02 
       4.713225838436e-02       5.060914253265e+02 
       4.743293814168e-02       5.029075342124e+02 
       4.774100271297e-02       4.997120862419e+02 
       4.805694912064e-02       4.965032368015e+02 
       4.838132291952e-02       4.932809107989e+02 
       4.871472450393e-02       4.900439012779e+02 
       4.905781643925e-02       4.867860283302e+02 
       4.941133201783e-02       4.835109230353e+02 
       4.977608528353e-02       4.802134000457e+02 
       5.015298282618e-02       4.768927216853e+02 
       5.054303771845e-02       4.735444081377e+02 
       5.094738605757e-02       4.701664545872e+02 
       5.136730668884e-02       4.667571423118e+02 
       5.180424483333e-02       4.633120607154e+02 
       5.225984052739e-02       4.598251504345e+02 
       5.273596301788e-02       4.562941704994e+02 
       5.323475255774e-02       4.527111488334e+02 
       5.375867142783e-02       4.490704914284e+02 
       5.431056648953e-02       4.453637572017e+02 
       5.489374616450e-02       4.415828897921e+02 
       5.551207544878e-02       4.377169022213e+02 
       5.617009337762e-02       4.337507762407e+02 
       5.687315818582e-02       4.296679648531e+02 
       5.762762604582e-02       4.254466513342e+02 
       5.844106924229e-02       4.210613734777e+02 
       5.932253797381e-02       4.164767820492e+02 
       6.028286471725e-02       4.116478761605e+02 
       6.133499760901e-02       4.065160227477e+02 
       6.249432323971e-02       4.010034707704e+02 
       6.377888977286e-02       3.950073374632e+02 
       6.520935658723e-02       3.883901144619e+02 
