# Matter power spectrum P(k) at redshift z=4.5
# for k=1.04575e-05 to 1006.15 h/Mpc,
# number of wavenumbers equal to 625
#    1:k (h/Mpc)              2:P (Mpc/h)^3        
       1.045749810485e-05       2.650123978050e+00 
       2.373043761528e-05       5.875369327368e+00 
       3.705205197341e-05       9.053066529739e+00 
       5.046040160262e-05       1.221363564272e+01 
       6.399420676399e-05       1.537544294527e+01 
       7.769321405898e-05       1.855282036484e+01 
       9.159857522556e-05       2.175837000852e+01 
       1.057532435558e-04       2.500393398950e+01 
       1.202023933008e-04       2.830110869757e+01 
       1.349938674647e-04       3.166156883595e+01 
       1.501786593808e-04       3.509730224960e+01 
       1.658114333596e-04       3.862080104641e+01 
       1.819510894196e-04       4.224523040336e+01 
       1.986613765579e-04       4.598458805034e+01 
       2.160115580438e-04       4.985386036718e+01 
       2.340771306401e-04       5.386917886122e+01 
       2.529405972213e-04       5.804797853228e+01 
       2.726922886571e-04       6.240915846637e+01 
       2.934312256600e-04       6.697324154524e+01 
       3.152660040981e-04       7.176253002962e+01 
       3.383156775180e-04       7.680125016624e+01 
       3.627105977775e-04       8.211567606935e+01 
       3.885931583209e-04       8.773421934151e+01 
       4.161183645581e-04       9.368746729375e+01 
       4.454541324261e-04       1.000081460617e+02 
       4.767811907995e-04       1.067309824998e+02 
       5.102924387431e-04       1.138924304822e+02 
       5.461915893473e-04       1.215302286149e+02 
       5.846909251320e-04       1.296827539158e+02 
       6.260080050474e-04       1.383881447921e+02 
       6.703612104985e-04       1.476831768928e+02 
       7.179641068864e-04       1.576019030537e+02 
       7.690187318622e-04       1.681740975677e+02 
       8.237080952403e-04       1.794235901102e+02 
       8.821883665213e-04       1.913666104326e+02 
       9.445813962622e-04       2.040103016264e+02 
       1.010968318642e-03       2.173515795824e+02 
       1.081384969221e-03       2.313764895400e+02 
       1.155819700313e-03       2.460601744419e+02 
       1.234213899658e-03       2.613674928196e+02 
       1.316465168833e-03       2.772542298409e+02 
       1.402432774394e-03       2.936687766876e+02 
       1.491944724558e-03       3.105541018005e+02 
       1.584805697329e-03       3.278497974527e+02 
       1.680805061300e-03       3.454940266955e+02 
       1.779724358910e-03       3.634252515046e+02 
       1.881343813733e-03       3.815836332590e+02 
       1.985447627100e-03       3.999120856809e+02 
       2.091828006459e-03       4.183570174696e+02 
       2.200287998256e-03       4.368687723184e+02 
       2.310643277916e-03       4.554012549924e+02 
       2.422723085604e-03       4.739136890327e+02 
       2.536370500476e-03       4.923690226926e+02 
       2.651442230081e-03       5.107341236074e+02 
       2.767808065318e-03       5.289795631780e+02 
       2.885350122018e-03       5.470795760164e+02 
       3.003961962113e-03       5.650115377866e+02 
       3.123547662764e-03       5.827558830508e+02 
       3.244020881646e-03       6.002957225755e+02 
       3.365303950641e-03       6.176165807135e+02 
       3.487327018288e-03       6.347061405441e+02 
       3.610027252458e-03       6.515539763259e+02 
       3.733348108622e-03       6.681514496516e+02 
       3.857238664757e-03       6.844912814879e+02 
       3.981653021215e-03       7.005675398477e+02 
       4.106549762154e-03       7.163755706080e+02 
       4.231891474164e-03       7.319115435405e+02 
       4.357644317282e-03       7.471728588859e+02 
       4.483777643502e-03       7.621574175889e+02 
       4.610263657980e-03       7.768641865738e+02 
       4.737077118433e-03       7.912924714542e+02 
       4.864195068510e-03       8.054423393517e+02 
       4.991596601329e-03       8.193144050549e+02 
       5.119262649698e-03       8.329094211248e+02 
       5.247175799933e-03       8.462289096073e+02 
       5.375320126495e-03       8.592742614447e+02 
       5.503681045008e-03       8.720474230261e+02 
       5.632245181484e-03       8.845507264089e+02 
       5.761000255846e-03       8.967863048966e+02 
       5.889934978076e-03       9.087566968766e+02 
       6.019038955502e-03       9.204645531815e+02 
       6.148302609931e-03       9.319125592273e+02 
       6.277717103485e-03       9.431037373848e+02 
       6.407274272154e-03       9.540412415596e+02 
       6.536966566162e-03       9.647276942399e+02 
       6.666786996400e-03       9.751664700016e+02 
       6.796729086234e-03       9.853605318910e+02 
       6.926786828089e-03       9.953131188985e+02 
       7.056954644300e-03       1.005027655692e+03 
       7.187227351743e-03       1.014507382545e+03 
       7.317600129859e-03       1.023755114322e+03 
       7.448068491705e-03       1.032774149904e+03 
       7.578628257697e-03       1.041567886729e+03 
       7.709275531791e-03       1.050139082502e+03 
       7.840006679834e-03       1.058491674957e+03 
       7.970818309857e-03       1.066628509838e+03 
       8.101707254141e-03       1.074552312153e+03 
       8.232670552846e-03       1.082266847546e+03 
       8.363705439076e-03       1.089775089762e+03 
       8.494809325229e-03       1.097079374847e+03 
       8.625979790500e-03       1.104183368232e+03 
       8.757214569446e-03       1.111090037248e+03 
       8.888511541496e-03       1.117802201912e+03 
       9.019868721331e-03       1.124322570557e+03 
       9.151284250039e-03       1.130654400695e+03 
       9.282756386994e-03       1.136800132632e+03 
       9.414283502372e-03       1.142762822784e+03 
       9.545864070270e-03       1.148544927834e+03 
       9.677496662351e-03       1.154149296585e+03 
       9.809179941995e-03       1.159578696529e+03 
       9.940912658886e-03       1.164835342273e+03 
       1.007269364402e-02       1.169922084798e+03 
       1.020452180510e-02       1.174841454999e+03 
       1.033639612222e-02       1.179597768875e+03 
       1.046831564399e-02       1.184190226024e+03 
       1.060027948378e-02       1.188622013813e+03 
       1.073228681639e-02       1.192896212003e+03 
       1.086433687490e-02       1.197014989471e+03 
       1.099642894770e-02       1.200980519858e+03 
       1.112856237583e-02       1.204795251042e+03 
       1.126073655044e-02       1.208461012493e+03 
       1.139295091047e-02       1.211980723413e+03 
       1.152520494046e-02       1.215355851434e+03 
       1.165749816853e-02       1.218588300197e+03 
       1.178983016452e-02       1.221681315388e+03 
       1.192220053825e-02       1.224635713005e+03 
       1.205460893787e-02       1.227453882619e+03 
       1.218705504840e-02       1.230138231736e+03 
       1.231953859028e-02       1.232690821308e+03 
       1.245205931810e-02       1.235112053298e+03 
       1.258461701939e-02       1.237405882277e+03 
       1.271721151347e-02       1.239572945404e+03 
       1.284984265044e-02       1.241615416248e+03 
       1.298251031021e-02       1.243534440192e+03 
       1.311521440158e-02       1.245333318797e+03 
       1.324795486143e-02       1.247012922022e+03 
       1.338073165393e-02       1.248574776728e+03 
       1.351354476986e-02       1.250021367488e+03 
       1.364639422595e-02       1.251353994900e+03 
       1.377928006424e-02       1.252574197972e+03 
       1.391220235156e-02       1.253683878317e+03 
       1.404516117903e-02       1.254684885266e+03 
       1.417815666155e-02       1.255579007637e+03 
       1.431118893742e-02       1.256366770058e+03 
       1.444425816794e-02       1.257051469675e+03 
       1.457736453706e-02       1.257633034822e+03 
       1.471050825103e-02       1.258114113581e+03 
       1.484368953822e-02       1.258495468301e+03 
       1.497690864875e-02       1.258779405363e+03 
       1.511016585436e-02       1.258966569061e+03 
       1.524346144820e-02       1.259059524518e+03 
       1.537679574464e-02       1.259059103796e+03 
       1.551016907917e-02       1.258966812695e+03 
       1.564358180828e-02       1.258784477950e+03 
       1.577703430938e-02       1.258513040809e+03 
       1.591052698073e-02       1.258154276619e+03 
       1.604406024142e-02       1.257709580471e+03 
       1.617763453133e-02       1.257180329988e+03 
       1.631125031118e-02       1.256567580262e+03 
       1.644490806251e-02       1.255873039110e+03 
       1.657860828775e-02       1.255098084827e+03 
       1.671235151029e-02       1.254244023438e+03 
       1.684613827459e-02       1.253312214070e+03 
       1.697996914622e-02       1.252302874306e+03 
       1.711384471207e-02       1.251218354603e+03 
       1.724776558040e-02       1.250060926354e+03 
       1.738173238109e-02       1.248830855535e+03 
       1.751574576578e-02       1.247528173830e+03 
       1.764980640804e-02       1.246155457287e+03 
       1.778391500363e-02       1.244713766952e+03 
       1.791807227070e-02       1.243204457085e+03 
       1.805227895006e-02       1.241628058743e+03 
       1.818653580541e-02       1.239986611140e+03 
       1.832084362365e-02       1.238280322969e+03 
       1.845520321520e-02       1.236511045287e+03 
       1.858961541424e-02       1.234679155284e+03 
       1.872408107911e-02       1.232786887117e+03 
       1.885860109264e-02       1.230834885814e+03 
       1.899317636251e-02       1.228823004778e+03 
       1.912780782161e-02       1.226754344321e+03 
       1.926249642850e-02       1.224627759973e+03 
       1.939724316775e-02       1.222448039070e+03 
       1.953204905044e-02       1.220210349005e+03 
       1.966691511458e-02       1.217922891195e+03 
       1.980184242558e-02       1.215580498875e+03 
       1.993683207674e-02       1.213187678155e+03 
       2.007188518977e-02       1.210744815112e+03 
       2.020700291530e-02       1.208250649157e+03 
       2.034218643342e-02       1.205708657874e+03 
       2.047743695426e-02       1.203119852502e+03 
       2.061275571856e-02       1.200484436959e+03 
       2.074814399829e-02       1.197803102806e+03 
       2.088360309724e-02       1.195076987609e+03 
       2.101913435170e-02       1.192307027293e+03 
       2.115473913110e-02       1.189494054735e+03 
       2.129041883873e-02       1.186641627696e+03 
       2.142617491241e-02       1.183745732170e+03 
       2.156200882525e-02       1.180811231085e+03 
       2.169792208640e-02       1.177837048923e+03 
       2.183391624183e-02       1.174824443745e+03 
       2.196999287514e-02       1.171775313926e+03 
       2.210615360838e-02       1.168687634669e+03 
       2.224240010293e-02       1.165567067670e+03 
       2.237873406036e-02       1.162409101027e+03 
       2.251515722336e-02       1.159217839041e+03 
       2.265167137665e-02       1.155996011502e+03 
       2.278827834800e-02       1.152739405728e+03 
       2.292498000920e-02       1.149451167403e+03 
       2.306177827707e-02       1.146133778670e+03 
       2.319867511457e-02       1.142785064759e+03 
       2.333567253186e-02       1.139408504850e+03 
       2.347277258747e-02       1.136002240359e+03 
       2.360997738941e-02       1.132569922866e+03 
       2.374728909641e-02       1.129109718657e+03 
       2.388470991917e-02       1.125625816513e+03 
       2.402224212160e-02       1.122115604805e+03 
       2.415988802217e-02       1.118580450353e+03 
       2.429764999526e-02       1.115019656021e+03 
       2.443553047256e-02       1.111438139081e+03 
       2.457353194453e-02       1.107835453769e+03 
       2.471165696187e-02       1.104209441157e+03 
       2.484990813710e-02       1.100562516195e+03 
       2.498828814611e-02       1.096896342509e+03 
       2.512679972984e-02       1.093208633466e+03 
       2.526544569592e-02       1.089503497472e+03 
       2.540422892050e-02       1.085780844831e+03 
       2.554315234997e-02       1.082039261615e+03 
       2.568221900292e-02       1.078280129033e+03 
       2.582143197196e-02       1.074504104117e+03 
       2.596079442580e-02       1.070713312997e+03 
       2.610030961129e-02       1.066907847614e+03 
       2.623998085549e-02       1.063089713216e+03 
       2.637981156794e-02       1.059253827423e+03 
       2.651980524290e-02       1.055406628605e+03 
       2.665996546168e-02       1.051544873193e+03 
       2.680029589511e-02       1.047672848925e+03 
       2.694080030602e-02       1.043786689825e+03 
       2.708148255186e-02       1.039891484924e+03 
       2.722234658737e-02       1.035985546649e+03 
       2.736339646738e-02       1.032067602061e+03 
       2.750463634970e-02       1.028138946422e+03 
       2.764607049807e-02       1.024204796191e+03 
       2.778770328530e-02       1.020258063216e+03 
       2.792953919641e-02       1.016308259926e+03 
       2.807158283200e-02       1.012346347005e+03 
       2.821383891169e-02       1.008376883715e+03 
       2.835631227763e-02       1.004401244190e+03 
       2.849900789825e-02       1.000420124725e+03 
       2.864193087208e-02       9.964344205014e+02 
       2.878508643170e-02       9.924392164624e+02 
       2.892847994792e-02       9.884420072042e+02 
       2.907211693401e-02       9.844372253032e+02 
       2.921600305018e-02       9.804343863815e+02 
       2.936014410820e-02       9.764209151320e+02 
       2.950454607619e-02       9.724066152071e+02 
       2.964921508358e-02       9.683883513384e+02 
       2.979415742637e-02       9.643698065698e+02 
       2.993937957245e-02       9.603465501781e+02 
       3.008488816723e-02       9.563213645666e+02 
       3.023069003948e-02       9.522945928907e+02 
       3.037679220740e-02       9.482662653629e+02 
       3.052320188494e-02       9.442368063146e+02 
       3.066992648838e-02       9.402077765284e+02 
       3.081697364318e-02       9.361796821343e+02 
       3.096435119115e-02       9.321465107156e+02 
       3.111206719787e-02       9.281157362036e+02 
       3.126012996051e-02       9.240869935032e+02 
       3.140854801586e-02       9.200614066521e+02 
       3.155733014887e-02       9.160333023721e+02 
       3.170648540141e-02       9.120070312232e+02 
       3.185602308155e-02       9.079830016118e+02 
       3.200595277315e-02       9.039638571019e+02 
       3.215628434598e-02       8.999429500412e+02 
       3.230702796621e-02       8.959266417716e+02 
       3.245819410741e-02       8.919128230429e+02 
       3.260979356215e-02       8.878988235584e+02 
       3.276183745398e-02       8.838913550918e+02 
       3.291433725013e-02       8.798878716102e+02 
       3.306730477471e-02       8.758862423291e+02 
       3.322075222260e-02       8.718859766363e+02 
       3.337469217403e-02       8.678938059302e+02 
       3.352913760980e-02       8.639075058216e+02 
       3.368410192736e-02       8.599215246199e+02 
       3.383959895760e-02       8.559415566004e+02 
       3.399564298254e-02       8.519664667779e+02 
       3.415224875396e-02       8.479951473375e+02 
       3.430943151287e-02       8.440315881249e+02 
       3.446720701016e-02       8.400687351533e+02 
       3.462559152820e-02       8.361158609535e+02 
       3.478460190367e-02       8.321657246695e+02 
       3.494425555159e-02       8.282226779525e+02 
       3.510457049068e-02       8.242834194662e+02 
       3.526556537007e-02       8.203544428622e+02 
       3.542725949757e-02       8.164275503140e+02 
       3.558967286947e-02       8.125072094045e+02 
       3.575282620204e-02       8.085918024102e+02 
       3.591674096486e-02       8.046840757989e+02 
       3.608143941613e-02       8.007829371090e+02 
       3.624694463996e-02       7.968876026242e+02 
       3.641328058594e-02       7.930003577690e+02 
       3.658047211114e-02       7.891180294563e+02 
       3.674854502456e-02       7.852434117418e+02 
       3.691752613441e-02       7.813730068438e+02 
       3.708744329831e-02       7.775098088937e+02 
       3.725832547669e-02       7.736529050616e+02 
       3.743020278953e-02       7.698031944381e+02 
       3.760310657689e-02       7.659592625175e+02 
       3.777706946333e-02       7.621255720311e+02 
       3.795212542663e-02       7.582933433168e+02 
       3.812830987117e-02       7.544695148163e+02 
       3.830565970624e-02       7.506520188294e+02 
       3.848421342989e-02       7.468431680633e+02 
       3.866401121852e-02       7.430385902328e+02 
       3.884509502293e-02       7.392384292623e+02 
       3.902750867120e-02       7.354483656477e+02 
       3.921129797920e-02       7.316631676052e+02 
       3.939651086917e-02       7.278815261550e+02 
       3.958319749728e-02       7.241063860928e+02 
       3.977141039084e-02       7.203388499889e+02 
       3.996120459624e-02       7.165765034856e+02 
       4.015263783837e-02       7.128193788227e+02 
       4.034577069283e-02       7.090658110545e+02 
       4.054066677207e-02       7.053193869346e+02 
       4.073739292676e-02       7.015755479313e+02 
       4.093601946408e-02       6.978379682559e+02 
       4.113662038441e-02       6.941067975398e+02 
       4.133927363850e-02       6.903784214183e+02 
       4.154406140720e-02       6.866513459319e+02 
       4.175107040600e-02       6.829373917687e+02 
       4.196039221729e-02       6.792127923355e+02 
       4.217212365321e-02       6.754982696220e+02 
       4.238636715250e-02       6.717854837750e+02 
       4.260323121533e-02       6.680730381837e+02 
       4.282283088035e-02       6.643676301879e+02 
       4.304528824899e-02       6.606579901511e+02 
       4.327073306268e-02       6.569534814197e+02 
       4.349930333937e-02       6.532500301157e+02 
       4.373114607684e-02       6.495433817971e+02 
       4.396641803108e-02       6.458378753193e+02 
       4.420528657961e-02       6.421317704774e+02 
       4.444793068082e-02       6.384232110634e+02 
       4.469454194227e-02       6.347125713337e+02 
       4.494532581288e-02       6.309975628799e+02 
       4.520050291638e-02       6.272815225480e+02 
       4.546031054620e-02       6.235582927040e+02 
       4.572500434546e-02       6.198303450167e+02 
       4.599486019958e-02       6.160942857101e+02 
       4.627017637418e-02       6.123515636691e+02 
       4.655127593643e-02       6.086007500411e+02 
       4.683850950528e-02       6.048418231070e+02 
       4.713225838436e-02       6.010696446340e+02 
       4.743293814168e-02       5.972858312208e+02 
       4.774100271297e-02       5.934882840432e+02 
       4.805694912064e-02       5.896748134986e+02 
       4.838132291952e-02       5.858453278126e+02 
       4.871472450393e-02       5.819983969019e+02 
       4.905781643925e-02       5.781266815260e+02 
       4.941133201783e-02       5.742344948087e+02 
       4.977608528353e-02       5.703156745325e+02 
       5.015298282618e-02       5.663693439572e+02 
       5.054303771845e-02       5.623901799839e+02 
       5.094738605757e-02       5.583757971466e+02 
       5.136730668884e-02       5.543241533635e+02 
       5.180424483333e-02       5.502299951917e+02 
       5.225984052739e-02       5.460861291372e+02 
       5.273596301788e-02       5.418898794707e+02 
       5.323475255774e-02       5.376317607330e+02 
       5.375867142783e-02       5.333051230032e+02 
       5.431056648953e-02       5.288999294352e+02 
       5.489374616450e-02       5.244065874643e+02 
       5.551207544878e-02       5.198120366306e+02 
       5.617009337762e-02       5.150984198304e+02 
       5.687315818582e-02       5.102460778494e+02 
       5.762762604582e-02       5.052290735112e+02 
       5.844106924229e-02       5.000171667541e+02 
       5.932253797381e-02       4.945683740354e+02 
       6.028286471725e-02       4.888292537255e+02 
       6.133499760901e-02       4.827301927802e+02 
       6.249432323971e-02       4.761788697778e+02 
       6.377888977286e-02       4.690531145994e+02 
       6.520935658723e-02       4.611896041538e+02 
