# Matter power spectrum P(k) at redshift z=3.5
# for k=1.04575e-05 to 1006.15 h/Mpc,
# number of wavenumbers equal to 625
#    1:k (h/Mpc)              2:P (Mpc/h)^3        
       1.045749810485e-05       3.947815827263e+00 
       2.373043761528e-05       8.752369976663e+00 
       3.705205197341e-05       1.348608366911e+01 
       5.046040160262e-05       1.819426763690e+01 
       6.399420676399e-05       2.290427614509e+01 
       7.769321405898e-05       2.763745306967e+01 
       9.159857522556e-05       3.241256488888e+01 
       1.057532435558e-04       3.724724504467e+01 
       1.202023933008e-04       4.215876006775e+01 
       1.349938674647e-04       4.716449170117e+01 
       1.501786593808e-04       5.228228674615e+01 
       1.658114333596e-04       5.753074105737e+01 
       1.819510894196e-04       6.292945097553e+01 
       1.986613765579e-04       6.849925018376e+01 
       2.160115580438e-04       7.426244154858e+01 
       2.340771306401e-04       8.024302957810e+01 
       2.529405972213e-04       8.646695552345e+01 
       2.726922886571e-04       9.296233527111e+01 
       2.934312256600e-04       9.975969615873e+01 
       3.152660040981e-04       1.068922069958e+02 
       3.383156775180e-04       1.143958917304e+02 
       3.627105977775e-04       1.223098115958e+02 
       3.885931583209e-04       1.306761963532e+02 
       4.161183645581e-04       1.395404980727e+02 
       4.454541324261e-04       1.489513333648e+02 
       4.767811907995e-04       1.589602738903e+02 
       5.102924387431e-04       1.696214359676e+02 
       5.461915893473e-04       1.809908186550e+02 
       5.846909251320e-04       1.931253399357e+02 
       6.260080050474e-04       2.060815300484e+02 
       6.703612104985e-04       2.199138608986e+02 
       7.179641068864e-04       2.346727273152e+02 
       7.690187318622e-04       2.504021433068e+02 
       8.237080952403e-04       2.671372790191e+02 
       8.821883665213e-04       2.849020220567e+02 
       9.445813962622e-04       3.037067933461e+02 
       1.010968318642e-03       3.235468828029e+02 
       1.081384969221e-03       3.444015222149e+02 
       1.155819700313e-03       3.662338612637e+02 
       1.234213899658e-03       3.889918957053e+02 
       1.316465168833e-03       4.126102583141e+02 
       1.402432774394e-03       4.370126849644e+02 
       1.491944724558e-03       4.621148944382e+02 
       1.584805697329e-03       4.878275683357e+02 
       1.680805061300e-03       5.140591813944e+02 
       1.779724358910e-03       5.407185169808e+02 
       1.881343813733e-03       5.677167190014e+02 
       1.985447627100e-03       5.949688558057e+02 
       2.091828006459e-03       6.223950527444e+02 
       2.200287998256e-03       6.499211972158e+02 
       2.310643277916e-03       6.774784452966e+02 
       2.422723085604e-03       7.050058958535e+02 
       2.536370500476e-03       7.324482652470e+02 
       2.651442230081e-03       7.597561929962e+02 
       2.767808065318e-03       7.868859419407e+02 
       2.885350122018e-03       8.137992599709e+02 
       3.003961962113e-03       8.404626210888e+02 
       3.123547662764e-03       8.668470336456e+02 
       3.244020881646e-03       8.929274467400e+02 
       3.365303950641e-03       9.186823438662e+02 
       3.487327018288e-03       9.440933649320e+02 
       3.610027252458e-03       9.691449238221e+02 
       3.733348108622e-03       9.938240778458e+02 
       3.857238664757e-03       1.018119914852e+03 
       3.981653021215e-03       1.042023555897e+03 
       4.106549762154e-03       1.065528056017e+03 
       4.231891474164e-03       1.088627730065e+03 
       4.357644317282e-03       1.111318743994e+03 
       4.483777643502e-03       1.133598015229e+03 
       4.610263657980e-03       1.155464038565e+03 
       4.737077118433e-03       1.176915794542e+03 
       4.864195068510e-03       1.197953376369e+03 
       4.991596601329e-03       1.218577677233e+03 
       5.119262649698e-03       1.238789785354e+03 
       5.247175799933e-03       1.258591937530e+03 
       5.375320126495e-03       1.277986184678e+03 
       5.503681045008e-03       1.296975416550e+03 
       5.632245181484e-03       1.315563109588e+03 
       5.761000255846e-03       1.333752452118e+03 
       5.889934978076e-03       1.351547235419e+03 
       6.019038955502e-03       1.368951414067e+03 
       6.148302609931e-03       1.385968993686e+03 
       6.277717103485e-03       1.402604472962e+03 
       6.407274272154e-03       1.418862591571e+03 
       6.536966566162e-03       1.434747384549e+03 
       6.666786996400e-03       1.450263537310e+03 
       6.796729086234e-03       1.465415635737e+03 
       6.926786828089e-03       1.480208478052e+03 
       7.056954644300e-03       1.494647321982e+03 
       7.187227351743e-03       1.508736756155e+03 
       7.317600129859e-03       1.522481441116e+03 
       7.448068491705e-03       1.535886292551e+03 
       7.578628257697e-03       1.548956316361e+03 
       7.709275531791e-03       1.561695583519e+03 
       7.840006679834e-03       1.574109917321e+03 
       7.970818309857e-03       1.586203518760e+03 
       8.101707254141e-03       1.597980407391e+03 
       8.232670552846e-03       1.609446165861e+03 
       8.363705439076e-03       1.620605186017e+03 
       8.494809325229e-03       1.631460935124e+03 
       8.625979790500e-03       1.642018855845e+03 
       8.757214569446e-03       1.652283346243e+03 
       8.888511541496e-03       1.662258591076e+03 
       9.019868721331e-03       1.671948603053e+03 
       9.151284250039e-03       1.681358118636e+03 
       9.282756386994e-03       1.690492958851e+03 
       9.414283502372e-03       1.699354610861e+03 
       9.545864070270e-03       1.707947034548e+03 
       9.677496662351e-03       1.716275031347e+03 
       9.809179941995e-03       1.724342749361e+03 
       9.940912658886e-03       1.732153473227e+03 
       1.007269364402e-02       1.739711438894e+03 
       1.020452180510e-02       1.747020443244e+03 
       1.033639612222e-02       1.754083839396e+03 
       1.046831564399e-02       1.760905907317e+03 
       1.060027948378e-02       1.767488962149e+03 
       1.073228681639e-02       1.773837571744e+03 
       1.086433687490e-02       1.779954970833e+03 
       1.099642894770e-02       1.785844393534e+03 
       1.112856237583e-02       1.791509484151e+03 
       1.126073655044e-02       1.796952966851e+03 
       1.139295091047e-02       1.802179181990e+03 
       1.152520494046e-02       1.807190314685e+03 
       1.165749816853e-02       1.811989199181e+03 
       1.178983016452e-02       1.816580661201e+03 
       1.192220053825e-02       1.820965914042e+03 
       1.205460893787e-02       1.825148509338e+03 
       1.218705504840e-02       1.829132025622e+03 
       1.231953859028e-02       1.832919525553e+03 
       1.245205931810e-02       1.836511606040e+03 
       1.258461701939e-02       1.839914148327e+03 
       1.271721151347e-02       1.843128101578e+03 
       1.284984265044e-02       1.846156700631e+03 
       1.298251031021e-02       1.849001653721e+03 
       1.311521440158e-02       1.851667877785e+03 
       1.324795486143e-02       1.854156669489e+03 
       1.338073165393e-02       1.856470311647e+03 
       1.351354476986e-02       1.858612503855e+03 
       1.364639422595e-02       1.860585191780e+03 
       1.377928006424e-02       1.862390685744e+03 
       1.391220235156e-02       1.864031860454e+03 
       1.404516117903e-02       1.865511358394e+03 
       1.417815666155e-02       1.866831824378e+03 
       1.431118893742e-02       1.867994050364e+03 
       1.444425816794e-02       1.869002998266e+03 
       1.457736453706e-02       1.869858555780e+03 
       1.471050825103e-02       1.870564663258e+03 
       1.484368953822e-02       1.871122451788e+03 
       1.497690864875e-02       1.871535354388e+03 
       1.511016585436e-02       1.871804331996e+03 
       1.524346144820e-02       1.871933200142e+03 
       1.537679574464e-02       1.871923196776e+03 
       1.551016907917e-02       1.871776571719e+03 
       1.564358180828e-02       1.871496035869e+03 
       1.577703430938e-02       1.871082995363e+03 
       1.591052698073e-02       1.870540091055e+03 
       1.604406024142e-02       1.869869398839e+03 
       1.617763453133e-02       1.869072972725e+03 
       1.631125031118e-02       1.868152384127e+03 
       1.644490806251e-02       1.867110171498e+03 
       1.657860828775e-02       1.865948389009e+03 
       1.671235151029e-02       1.864668977872e+03 
       1.684613827459e-02       1.863273966453e+03 
       1.697996914622e-02       1.861763680052e+03 
       1.711384471207e-02       1.860141610445e+03 
       1.724776558040e-02       1.858411144745e+03 
       1.738173238109e-02       1.856572675513e+03 
       1.751574576578e-02       1.854626251426e+03 
       1.764980640804e-02       1.852575710031e+03 
       1.778391500363e-02       1.850422631475e+03 
       1.791807227070e-02       1.848169024472e+03 
       1.805227895006e-02       1.845815690671e+03 
       1.818653580541e-02       1.843365656388e+03 
       1.832084362365e-02       1.840819242262e+03 
       1.845520321520e-02       1.838179196598e+03 
       1.858961541424e-02       1.835446082419e+03 
       1.872408107911e-02       1.832623230983e+03 
       1.885860109264e-02       1.829711596747e+03 
       1.899317636251e-02       1.826710967238e+03 
       1.912780782161e-02       1.823625954792e+03 
       1.926249642850e-02       1.820454858035e+03 
       1.939724316775e-02       1.817204799362e+03 
       1.953204905044e-02       1.813868592733e+03 
       1.966691511458e-02       1.810458441797e+03 
       1.980184242558e-02       1.806966660160e+03 
       1.993683207674e-02       1.803399947418e+03 
       2.007188518977e-02       1.799758884717e+03 
       2.020700291530e-02       1.796041603236e+03 
       2.034218643342e-02       1.792253268289e+03 
       2.047743695426e-02       1.788395387257e+03 
       2.061275571856e-02       1.784468263454e+03 
       2.074814399829e-02       1.780472925780e+03 
       2.088360309724e-02       1.776411073127e+03 
       2.101913435170e-02       1.772284097838e+03 
       2.115473913110e-02       1.768093229722e+03 
       2.129041883873e-02       1.763843768827e+03 
       2.142617491241e-02       1.759529745432e+03 
       2.156200882525e-02       1.755158393029e+03 
       2.169792208640e-02       1.750728103611e+03 
       2.183391624183e-02       1.746240762164e+03 
       2.196999287514e-02       1.741699179348e+03 
       2.210615360838e-02       1.737100347181e+03 
       2.224240010293e-02       1.732452688362e+03 
       2.237873406036e-02       1.727749497793e+03 
       2.251515722336e-02       1.722996864212e+03 
       2.265167137665e-02       1.718198856002e+03 
       2.278827834800e-02       1.713349212536e+03 
       2.292498000920e-02       1.708452598496e+03 
       2.306177827707e-02       1.703512716104e+03 
       2.319867511457e-02       1.698526321775e+03 
       2.333567253186e-02       1.693498588720e+03 
       2.347277258747e-02       1.688426759470e+03 
       2.360997738941e-02       1.683316260527e+03 
       2.374728909641e-02       1.678164356199e+03 
       2.388470991917e-02       1.672977284173e+03 
       2.402224212160e-02       1.667751154659e+03 
       2.415988802217e-02       1.662488000398e+03 
       2.429764999526e-02       1.657186788393e+03 
       2.443553047256e-02       1.651854827180e+03 
       2.457353194453e-02       1.646491440352e+03 
       2.471165696187e-02       1.641093429420e+03 
       2.484990813710e-02       1.635664393518e+03 
       2.498828814611e-02       1.630206784464e+03 
       2.512679972984e-02       1.624717201950e+03 
       2.526544569592e-02       1.619201775941e+03 
       2.540422892050e-02       1.613660348533e+03 
       2.554315234997e-02       1.608090834359e+03 
       2.568221900292e-02       1.602495284269e+03 
       2.582143197196e-02       1.596874669360e+03 
       2.596079442580e-02       1.591232140286e+03 
       2.610030961129e-02       1.585567855730e+03 
       2.623998085549e-02       1.579884779125e+03 
       2.637981156794e-02       1.574175356138e+03 
       2.651980524290e-02       1.568449171457e+03 
       2.665996546168e-02       1.562701389156e+03 
       2.680029589511e-02       1.556938390875e+03 
       2.694080030602e-02       1.551154428726e+03 
       2.708148255186e-02       1.545357055069e+03 
       2.722234658737e-02       1.539543788236e+03 
       2.736339646738e-02       1.533712722483e+03 
       2.750463634970e-02       1.527865780769e+03 
       2.764607049807e-02       1.522010709439e+03 
       2.778770328530e-02       1.516136992431e+03 
       2.792953919641e-02       1.510258762113e+03 
       2.807158283200e-02       1.504362580868e+03 
       2.821383891169e-02       1.498455237981e+03 
       2.835631227763e-02       1.492538754450e+03 
       2.849900789825e-02       1.486614182646e+03 
       2.864193087208e-02       1.480682847297e+03 
       2.878508643170e-02       1.474737450796e+03 
       2.892847994792e-02       1.468789140451e+03 
       2.907211693401e-02       1.462829605891e+03 
       2.921600305018e-02       1.456873035363e+03 
       2.936014410820e-02       1.450900711666e+03 
       2.950454607619e-02       1.444927216903e+03 
       2.964921508358e-02       1.438947875252e+03 
       2.979415742637e-02       1.432968188514e+03 
       2.993937957245e-02       1.426981574380e+03 
       3.008488816723e-02       1.420992141453e+03 
       3.023069003948e-02       1.415000409014e+03 
       3.037679220740e-02       1.409006430837e+03 
       3.052320188494e-02       1.403010823265e+03 
       3.066992648838e-02       1.397015942631e+03 
       3.081697364318e-02       1.391022491560e+03 
       3.096435119115e-02       1.385021587586e+03 
       3.111206719787e-02       1.379024300138e+03 
       3.126012996051e-02       1.373030098065e+03 
       3.140854801586e-02       1.367040652827e+03 
       3.155733014887e-02       1.361047534381e+03 
       3.170648540141e-02       1.355057205623e+03 
       3.185602308155e-02       1.349070273233e+03 
       3.200595277315e-02       1.343090678639e+03 
       3.215628434598e-02       1.337108532995e+03 
       3.230702796621e-02       1.331133291213e+03 
       3.245819410741e-02       1.325161821546e+03 
       3.260979356215e-02       1.319190160614e+03 
       3.276183745398e-02       1.313228267903e+03 
       3.291433725013e-02       1.307272360078e+03 
       3.306730477471e-02       1.301319293399e+03 
       3.322075222260e-02       1.295368325952e+03 
       3.337469217403e-02       1.289429448414e+03 
       3.352913760980e-02       1.283499376712e+03 
       3.368410192736e-02       1.277569850724e+03 
       3.383959895760e-02       1.271649333620e+03 
       3.399564298254e-02       1.265736145453e+03 
       3.415224875396e-02       1.259828624382e+03 
       3.430943151287e-02       1.253932711765e+03 
       3.446720701016e-02       1.248037930802e+03 
       3.462559152820e-02       1.242158035080e+03 
       3.478460190367e-02       1.236282294702e+03 
       3.494425555159e-02       1.230417164328e+03 
       3.510457049068e-02       1.224557736989e+03 
       3.526556537007e-02       1.218713660214e+03 
       3.542725949757e-02       1.212872756582e+03 
       3.558967286947e-02       1.207041653592e+03 
       3.575282620204e-02       1.201217967518e+03 
       3.591674096486e-02       1.195405769329e+03 
       3.608143941613e-02       1.189603434756e+03 
       3.624694463996e-02       1.183809799048e+03 
       3.641328058594e-02       1.178028257099e+03 
       3.658047211114e-02       1.172254096824e+03 
       3.674854502456e-02       1.166491463109e+03 
       3.691752613441e-02       1.160735166399e+03 
       3.708744329831e-02       1.154989642949e+03 
       3.725832547669e-02       1.149253544081e+03 
       3.743020278953e-02       1.143528202518e+03 
       3.760310657689e-02       1.137811518377e+03 
       3.777706946333e-02       1.132110112995e+03 
       3.795212542663e-02       1.126410951731e+03 
       3.812830987117e-02       1.120724328920e+03 
       3.830565970624e-02       1.115047174625e+03 
       3.848421342989e-02       1.109382923160e+03 
       3.866401121852e-02       1.103725082053e+03 
       3.884509502293e-02       1.098073862949e+03 
       3.902750867120e-02       1.092437685553e+03 
       3.921129797920e-02       1.086808789535e+03 
       3.939651086917e-02       1.081185233977e+03 
       3.958319749728e-02       1.075571370401e+03 
       3.977141039084e-02       1.069968844997e+03 
       3.996120459624e-02       1.064374062767e+03 
       4.015263783837e-02       1.058787076286e+03 
       4.034577069283e-02       1.053205403514e+03 
       4.054066677207e-02       1.047634370258e+03 
       4.073739292676e-02       1.042067187676e+03 
       4.093601946408e-02       1.036509322883e+03 
       4.113662038441e-02       1.030960996749e+03 
       4.133927363850e-02       1.025416831791e+03 
       4.154406140720e-02       1.019874599350e+03 
       4.175107040600e-02       1.014351862172e+03 
       4.196039221729e-02       1.008813305415e+03 
       4.217212365321e-02       1.003289707963e+03 
       4.238636715250e-02       9.977686841802e+02 
       4.260323121533e-02       9.922481472390e+02 
       4.282283088035e-02       9.867380452006e+02 
       4.304528824899e-02       9.812216331618e+02 
       4.327073306268e-02       9.757128202983e+02 
       4.349930333937e-02       9.702055519636e+02 
       4.373114607684e-02       9.646935024727e+02 
       4.396641803108e-02       9.591831141369e+02 
       4.420528657961e-02       9.536718040112e+02 
       4.444793068082e-02       9.481568146722e+02 
       4.469454194227e-02       9.426387005745e+02 
       4.494532581288e-02       9.371140589565e+02 
       4.520050291638e-02       9.315878464795e+02 
       4.546031054620e-02       9.260509226332e+02 
       4.572500434546e-02       9.205069560928e+02 
       4.599486019958e-02       9.149509089052e+02 
       4.627017637418e-02       9.093849330858e+02 
       4.655127593643e-02       9.038069060412e+02 
       4.683850950528e-02       8.982168002752e+02 
       4.713225838436e-02       8.926069911567e+02 
       4.743293814168e-02       8.869798745850e+02 
       4.774100271297e-02       8.813323382627e+02 
       4.805694912064e-02       8.756611349804e+02 
       4.838132291952e-02       8.699661129166e+02 
       4.871472450393e-02       8.642451540405e+02 
       4.905781643925e-02       8.584873660348e+02 
       4.941133201783e-02       8.526991508876e+02 
       4.977608528353e-02       8.468713373050e+02 
       5.015298282618e-02       8.410026201035e+02 
       5.054303771845e-02       8.350850815359e+02 
       5.094738605757e-02       8.291151630364e+02 
       5.136730668884e-02       8.230898293535e+02 
       5.180424483333e-02       8.170012245764e+02 
       5.225984052739e-02       8.108386668843e+02 
       5.273596301788e-02       8.045981397675e+02 
       5.323475255774e-02       7.982655197244e+02 
       5.375867142783e-02       7.918308830988e+02 
       5.431056648953e-02       7.852793012562e+02 
       5.489374616450e-02       7.785964571203e+02 
       5.551207544878e-02       7.717629129043e+02 
       5.617009337762e-02       7.647521069010e+02 
       5.687315818582e-02       7.575348051905e+02 
       5.762762604582e-02       7.500724348214e+02 
       5.844106924229e-02       7.423200707719e+02 
       5.932253797381e-02       7.342153740657e+02 
       6.028286471725e-02       7.256789881315e+02 
       6.133499760901e-02       7.166075792379e+02 
       6.249432323971e-02       7.068640749129e+02 
       6.377888977286e-02       6.962670800994e+02 
       6.520935658723e-02       6.845739940561e+02 
